{"payload":{"allShortcutsEnabled":false,"fileTree":{"":{"items":[{"name":"mHealth","path":"mHealth","contentType":"directory"},{"name":".gitignore","path":".gitignore","contentType":"file"},{"name":"AHLSAM018434.csv","path":"AHLSAM018434.csv","contentType":"file"},{"name":"IP_ Sujay Deb - AHLSAM018434 .csv","path":"IP_ Sujay Deb - AHLSAM018434 .csv","contentType":"file"},{"name":"LICENSE","path":"LICENSE","contentType":"file"},{"name":"README.md","path":"README.md","contentType":"file"}],"totalCount":6}},"fileTreeProcessingTime":3.0736090000000003,"foldersToFetch":[],"reducedMotionEnabled":null,"repo":{"id":700897112,"defaultBranch":"main","name":"mHealth-frontend","ownerLogin":"sakethwithanh","currentUserCanPush":false,"isFork":false,"isEmpty":false,"createdAt":"2023-10-05T14:04:04.000Z","ownerAvatar":"https://avatars.githubusercontent.com/u/108284253?v=4","public":true,"private":false,"isOrgOwned":false},"symbolsExpanded":false,"treeExpanded":true,"refInfo":{"name":"main","listCacheKey":"v0:1704218288.0","canEdit":false,"refType":"branch","currentOid":"4db4cd93c7bb5f5c23d1b8edf8f48ef58d8863d2"},"path":"IP_ Sujay Deb - AHLSAM018434 .csv","currentUser":null,"blob":{"rawLines":null,"stylingDirectives":null,"csv":[["GSR","CBT(degC)","PPG","ECG","Sleep","Time"],["126","33.38","6","605:617:625:629:627:612:578:537:506:489:476:470:469:471:475:474:476:480:484:486:487:490:497:495:499:501:501:499:501:501:504:502:504:501:505:505:507:516:519:508:509:512:509:513:516:516:519:526:586:816:969:682:478:552:533:526:529:534:538:544:553:556:565:576:586:596:607:620:627:627:625:605:569:533:505:490:478:475:476:476:477:478:480:484:486:487:493:494:497:499:499:501:501:500:504:504:505:504:505:509:507:505:506:506:519:517:509:508:513:513:513:517:516:518:529:652:900:944:524:512:548:528:530:532:535:541:548:554:560:571:580:591:604:615:624:629:628:622:597:559:525:499:484:474:471:474:470:473:475:483:482:486:488:493:493:497:496:496:501:499:502:504:504:497:500:504:508:512:511:505:505:506:505:506:513:509:514:525:690:942:876:452:533:544:528:529:535:540:545:550:561:568:579:590:605:617:630:638:638:634:","Acceleration = 78.45i -78.45j 6.11k  m/s^2 , Gyro = -0.05i -0.04j -0.01k  rad/s","23:18:13"],["65","34.5","99","529:537:543:553:560:568:578:586:596:606:613:615:609:605:579:543:514:497:478:468:469:474:476:478:478:483:482:484:495:497:494:500:504:500:498:497:499:500:499:507:505:497:507:504:499:499:505:508:514:513:632:888:916:476:521:552:525:528:531:538:540:547:554:566:573:580:595:603:619:616:620:615:601:562:528:497:484:468:463:468:465:452:471:475:464:481:483:485:485:496:487:502:489:494:493:499:487:496:497:505:507:501:502:500:500:499:504:506:507:506:552:794:955:643:469:548:532:525:528:528:541:544:553:559:562:582:586:597:608:613:617:618:614:586:552:522:497:489:483:475:478:484:484:488:486:493:495:496:495:498:501:500:504:499:506:505:501:498:501:501:507:517:516:508:506:505:516:513:511:512:520:521:622:869:940:542:512:552:525:530:537:534:541:545:546:553:567:576:585:594:604:614:614:614:600:577:542:513:489:480:","Acceleration = 78.45i -78.45j 7.24k  m/s^2 , Gyro = -0.05i 0.02j -0.01k  rad/s","23:18:38"],["65","34.75","91","644:641:632:606:565:531:507:494:485:480:483:483:483:484:486:487:493:494:497:499:499:502:502:504:504:502:504:502:498:502:504:505:505:512:516:507:504:506:511:508:509:513:516:517:540:730:941:835:461:541:534:520:524:522:529:535:542:547:554:566:577:586:600:612:615:617:616:600:564:528:499:480:466:466:463:462:468:470:470:470:476:476:478:478:483:483:484:485:487:486:484:488:487:486:487:486:489:489:489:499:502:500:494:495:494:499:499:501:502:502:525:711:941:829:445:526:528:512:513:519:524:531:535:544:554:561:571:586:595:612:621:625:624:602:562:525:497:477:465:464:461:465:464:468:471:473:477:476:483:483:488:490:493:490:493:493:493:492:494:495:497:504:499:493:495:498:496:501:502:504:507:514:637:895:912:470:513:541:521:525:528:533:537:544:553:559:573:583:596:609:622:632:633:632:615:578:532:500:481:470:","Acceleration = 78.45i -78.45j 7.38k  m/s^2 , Gyro = -0.04i 0.01j -0.00k  rad/s","23:19:03"],["70","34.81","94","508:508:508:506:513:511:521:619:876:930:541:499:548:541:526:532:543:542:549:553:559:571:579:589:605:612:625:628:626:618:591:550:520:485:485:478:470:469:469:470:473:473:482:480:481:492:493:495:493:490:497:498:493:498:495:505:500:497:497:495:496:496:504:506:505:508:572:821:953:564:478:553:522:521:530:532:535:546:554:562:567:581:591:606:619:627:633:632:618:582:541:512:487:473:466:464:465:469:468:468:471:478:480:482:487:492:492:496:496:494:497:497:499:495:505:508:500:497:497:498:501:507:505:506:507:516:684:927:857:459:532:541:521:520:526:536:535:546:556:561:567:577:594:604:616:628:626:622:596:571:535:502:487:480:475:474:475:472:480:480:486:488:488:494:498:499:502:499:506:499:504:502:506:504:504:504:504:516:522:508:511:508:511:508:506:514:518:518:546:749:952:795:465:546:534:531:529:529:541:544:","Acceleration = 78.45i -78.45j 7.28k  m/s^2 , Gyro = -0.05i 0.01j -0.01k  rad/s","23:19:30"],["85","35","91","506:514:505:517:516:506:505:518:513:512:518:509:543:752:946:716:466:547:535:529:524:534:534:548:547:556:570:573:588:598:607:619:621:620:605:605:566:525:494:472:476:468:461:470:470:469:471:471:475:478:482:486:487:489:484:498:499:488:489:492:493:501:497:489:489:496:494:497:500:502:501:513:645:900:884:447:519:538:524:524:528:526:536:549:555:564:576:584:590:617:616:621:620:621:605:567:521:505:483:470:465:464:454:471:468:476:480:477:470:486:493:493:494:489:486:498:496:509:489:496:494:504:509:506:504:497:506:505:499:505:511:507:536:717:926:784:451:536:542:523:524:532:531:541:547:554:566:573:586:593:605:615:627:626:617:604:561:533:511:487:477:475:473:474:481:476:476:482:485:494:499:499:501:497:499:513:501:502:502:498:502:507:518:516:509:507:506:509:512:513:517:516:519:619:868:916:524:511:553:534:","Acceleration = 78.45i -78.45j 7.25k  m/s^2 , Gyro = -0.04i 0.03j -0.01k  rad/s","23:19:55"],["101","35","100","502:499:499:506:514:507:501:506:507:505:506:510:513:514:542:744:945:738:458:554:541:533:534:537:543:548:556:562:571:583:593:601:609:617:620:621:614:590:559:528:502:484:476:475:475:475:476:478:480:484:487:492:492:495:497:497:499:497:499:502:500:506:507:502:500:500:501:501:501:505:507:514:561:793:950:592:475:552:529:524:529:534:538:546:550:559:568:579:590:602:610:618:618:615:603:573:537:506:486:475:468:469:469:469:469:471:476:480:487:488:493:493:493:495:495:494:494:495:496:496:505:506:501:497:498:499:500:502:506:507:514:576:804:928:589:484:548:526:525:529:530:535:542:548:557:565:573:583:595:605:608:608:606:597:572:535:507:487:478:475:471:471:471:476:478:481:485:487:493:494:495:496:497:497:497:498:499:499:500:512:512:505:502:502:504:508:508:511:514:521:607:840:925:555:505:555:532:531:535:541:","Acceleration = 78.45i -78.45j 7.27k  m/s^2 , Gyro = -0.05i 0.01j -0.00k  rad/s","23:20:21"],["116","35.06","96","628:634:637:628:602:560:522:496:482:476:474:473:474:477:478:483:485:486:489:493:493:497:499:502:502:504:502:502:499:500:499:502:507:513:516:514:513:512:513:516:517:519:518:523:661:907:905:492:525:545:525:526:534:534:536:545:554:558:567:578:593:604:615:622:629:632:621:582:544:510:486:469:469:474:468:469:468:471:480:475:474:478:490:488:489:489:489:493:493:492:494:496:496:502:506:500:496:495:499:497:501:504:506:513:541:728:943:780:457:554:548:528:536:538:545:552:562:568:574:583:593:615:631:643:653:654:643:625:572:534:498:476:471:465:459:460:459:460:463:464:468:469:476:480:483:483:484:488:487:485:492:500:488:488:487:487:489:488:490:494:501:518:675:940:787:432:534:529:517:518:521:532:536:546:556:566:579:590:604:620:636:642:653:643:615:565:522:496:478:469:462:465:461:462:464:469:470:475:480:485:","Acceleration = 78.45i -78.45j 7.28k  m/s^2 , Gyro = -0.05i 0.02j -0.01k  rad/s","23:20:48"],["152","35.69","82","502:504:504:499:506:509:514:512:506:511:509:512:513:514:518:526:598:855:1006:640:507:557:535:532:532:536:544:548:556:561:573:584:594:606:619:628:632:632:626:603:558:521:496:482:475:470:473:474:475:474:481:480:483:487:488:493:495:497:499:499:502:502:504:505:501:506:512:517:512:507:508:512:512:512:516:518:524:561:780:997:753:478:557:534:528:531:534:541:545:550:559:567:576:588:598:609:621:626:627:620:600:561:526:500:486:477:474:473:474:476:480:481:484:486:489:494:498:498:499:499:502:502:504:502:506:504:505:506:508:507:509:513:509:511:516:522:520:517:518:517:521:520:523:524:525:540:693:962:932:481:542:543:528:531:532:534:541:545:552:560:567:577:586:598:606:612:614:609:600:580:545:516:495:483:475:474:473:475:478:480:482:487:487:489:493:493:498:497:497:496:498:498:496:496:501:499:502:501:502:504:","Acceleration = 78.45i -78.45j 5.83k  m/s^2 , Gyro = -0.04i 0.02j -0.01k  rad/s","23:23:09"],["60","35.69","98","486:488:490:495:495:497:497:501:499:501:499:499:502:505:505:504:502:508:517:512:507:508:512:511:512:513:512:517:526:658:905:936:490:526:545:526:524:528:533:537:543:548:560:567:579:586:598:608:618:620:620:609:582:545:511:487:474:468:466:466:469:470:475:476:476:480:484:487:487:489:493:493:496:498:495:498:497:496:498:499:498:510:507:499:499:501:505:506:504:507:509:520:600:856:951:544:502:547:524:525:525:532:535:545:552:559:568:581:592:603:616:627:633:632:622:595:550:513:487:472:464:459:462:462:464:466:469:473:475:481:484:487:489:489:494:493:496:496:497:497:496:498:505:512:507:501:504:504:504:505:507:511:517:525:674:930:891:473:541:546:528:531:533:540:543:550:558:567:576:585:595:609:622:633:634:631:616:586:543:513:488:478:472:470:471:471:474:476:481:483:485:488:492:493:495:495:498:499:498:499:","Acceleration = 78.45i -78.45j 7.81k  m/s^2 , Gyro = -0.04i 0.03j -0.01k  rad/s","23:24:41"],["73","35.75","99","499:499:499:499:499:500:499:499:505:506:513:508:506:507:508:512:511:512:516:517:524:653:906:925:494:525:544:524:526:528:533:536:545:552:559:568:578:589:602:610:620:622:621:609:579:541:508:487:477:471:469:470:471:473:475:478:480:485:487:489:489:494:495:495:495:495:499:498:497:500:502:513:506:502:502:505:504:505:509:508:516:525:676:929:884:463:537:543:524:532:531:536:544:548:556:565:572:588:601:613:625:634:637:633:619:579:535:505:484:470:464:463:468:469:469:470:474:477:480:486:488:489:494:495:494:495:502:504:508:511:505:501:501:499:501:502:505:504:507:520:613:874:926:494:516:542:521:523:526:528:535:544:547:559:565:579:590:608:618:626:632:629:612:572:528:489:465:459:449:448:452:450:453:458:459:462:466:469:475:474:477:477:480:481:481:483:484:481:486:495:499:488:487:492:494:493:495:497:501:507:","Acceleration = 78.45i -78.45j 7.11k  m/s^2 , Gyro = -0.05i 0.02j -0.03k  rad/s","23:25:05"],["78","35.56","92","492:494:496:507:507:501:499:501:501:505:506:508:512:518:574:818:992:648:483:550:526:525:528:532:535:542:550:556:566:573:588:602:616:632:641:643:637:608:562:521:495:478:468:468:468:469:470:472:475:476:478:481:486:488:489:494:496:501:504:505:502:504:506:504:509:509:507:511:513:522:517:512:513:517:514:516:521:521:524:532:654:924:973:521:528:552:530:534:534:537:543:550:555:564:572:583:594:605:622:638:643:646:636:604:558:518:500:486:481:478:474:477:476:477:478:483:484:486:490:489:495:499:504:504:502:504:502:502:506:504:502:508:509:509:513:513:522:517:516:517:516:518:517:518:522:524:531:636:904:989:546:521:559:532:528:536:541:544:550:559:568:580:592:600:612:632:646:656:660:648:615:562:521:494:475:465:461:465:465:468:469:470:470:475:476:478:482:486:486:488:489:494:495:495:494:494:494:494:497:498:","Acceleration = 78.45i -78.45j 6.86k  m/s^2 , Gyro = -0.04i 0.01j -0.01k  rad/s","23:25:28"],["75","35.75","100","541:542:548:555:564:572:583:594:605:615:619:619:615:597:558:522:500:483:475:473:473:474:478:478:477:480:483:486:489:492:496:496:498:497:499:500:500:499:500:501:504:505:502:506:505:514:517:506:508:510:511:511:513:514:517:524:652:928:957:499:530:546:528:530:535:542:544:549:559:567:580:590:600:614:627:636:638:634:622:589:544:518:494:482:475:474:475:473:475:478:480:483:484:488:494:497:495:497:502:500:498:504:500:498:501:505:513:514:501:505:507:508:508:511:509:516:520:620:888:958:518:519:550:525:525:528:535:538:545:554:562:572:581:593:606:619:627:633:633:615:577:535:499:476:465:461:459:460:461:459:464:464:465:473:474:481:486:486:489:493:492:489:493:494:493:498:495:494:498:502:511:506:504:505:506:506:509:513:512:518:531:703:961:892:466:545:540:525:526:532:534:537:546:553:562:571:582:595:607:617:","Acceleration = 78.45i -78.45j 6.97k  m/s^2 , Gyro = -0.04i 0.01j -0.01k  rad/s","23:25:52"],["88","35.81","100","473:474:474:477:477:487:490:495:489:494:493:498:499:497:502:502:500:496:497:505:517:518:507:507:508:512:505:512:508:520:522:594:850:966:522:509:546:522:522:523:525:533:541:553:560:564:579:590:602:614:624:632:631:619:604:562:521:487:474:461:461:462:461:461:465:465:468:470:478:483:478:483:494:483:488:489:493:490:493:504:501:496:492:495:496:500:499:499:504:513:572:830:973:578:496:550:525:524:525:529:534:542:549:555:562:572:585:596:607:617:622:622:614:596:557:519:490:474:464:463:463:463:465:471:475:478:483:484:487:489:488:494:496:496:497:497:497:496:498:499:507:511:504:504:505:507:506:507:511:513:520:562:861:987:558:507:552:528:525:528:533:538:544:552:559:568:578:585:597:607:615:619:618:610:592:559:522:501:485:476:474:474:475:477:478:483:487:488:490:496:496:498:501:500:501:501:502:501:502:507:","Acceleration = 78.45i -78.45j 7.02k  m/s^2 , Gyro = -0.04i 0.01j -0.01k  rad/s","23:26:15"],["90","35.81","93","516:550:774:979:658:474:554:530:525:526:532:538:543:553:561:572:583:595:608:625:633:641:641:630:600:553:512:485:471:465:465:461:463:466:466:470:471:475:478:483:485:486:489:493:494:494:494:494:494:494:498:508:504:500:502:499:502:505:505:507:512:518:632:913:957:504:524:544:526:524:528:532:540:545:553:560:569:579:591:604:617:626:630:628:617:584:542:512:487:478:471:469:469:475:475:478:481:485:487:489:494:497:497:499:500:501:502:504:504:505:501:501:505:512:519:516:507:509:512:513:516:517:518:529:534:688:943:933:488:541:548:532:532:533:540:544:550:558:562:569:580:590:604:617:626:628:627:614:581:541:512:494:487:481:478:478:480:483:487:492:493:494:495:498:500:505:502:506:505:504:506:505:504:508:507:507:506:509:512:521:516:514:513:514:517:517:521:520:522:530:637:897:970:530:519:552:525:524:530:533:","Acceleration = 78.45i -78.45j 7.06k  m/s^2 , Gyro = -0.04i 0.01j -0.01k  rad/s","23:26:40"],["96","35.94","92","637:631:608:571:530:498:478:464:461:461:461:461:465:464:470:474:478:480:481:485:487:485:490:496:492:489:493:498:500:495:496:497:499:500:505:508:516:509:506:509:508:511:512:514:516:521:536:704:950:891:470:542:543:528:528:531:537:543:546:556:561:572:582:594:607:617:626:632:633:622:588:543:513:492:476:473:469:469:473:475:475:480:483:486:488:492:495:497:497:499:501:501:501:502:505:504:506:504:506:507:506:506:511:521:518:507:512:514:514:519:517:516:518:526:591:819:982:657:489:556:538:533:531:535:540:546:554:564:572:580:586:596:614:632:625:629:628:610:572:530:504:485:474:471:465:469:471:471:475:477:483:484:483:487:488:486:493:494:496:494:493:495:499:493:499:499:497:499:508:512:506:504:501:509:512:510:513:512:521:531:670:931:913:470:531:543:529:526:525:533:538:545:556:565:571:580:594:615:622:633:","Acceleration = 78.45i -78.45j 10.11k  m/s^2 , Gyro = -0.00i -0.01j 0.08k  rad/s","23:27:05"],["101","35.69","99","480:470:466:463:469:464:465:475:474:478:484:484:484:487:487:489:498:498:494:493:493:493:493:501:507:509:502:500:499:505:502:506:512:506:516:531:694:950:849:456:547:535:528:526:531:533:536:545:557:569:573:585:598:606:625:636:640:637:622:585:542:507:485:469:464:463:464:464:465:468:470:474:476:478:481:487:489:488:495:494:498:494:494:496:498:499:494:499:505:509:507:502:502:507:506:509:511:511:517:523:645:901:948:508:519:542:525:526:526:529:540:547:552:560:567:581:588:598:617:624:633:633:627:603:562:523:497:478:476:470:469:470:475:478:475:484:485:485:494:495:495:495:495:499:498:498:499:497:500:501:500:501:516:509:508:506:507:507:511:509:512:514:521:597:849:966:596:493:548:528:525:524:531:534:544:549:554:562:577:582:596:608:625:629:631:627:605:566:525:499:481:474:466:464:463:471:471:473:477:477:","Acceleration = 78.45i -78.45j 7.34k  m/s^2 , Gyro = 0.02i -0.19j -0.00k  rad/s","23:27:27"],["109","35.88","97","481:480:481:488:493:487:493:495:494:495:494:490:498:504:506:502:495:501:506:504:505:507:506:517:526:626:884:933:502:523:553:537:532:537:543:544:554:562:568:581:591:603:617:634:646:649:650:639:603:555:517:488:474:466:463:464:465:468:471:470:475:478:482:486:488:489:492:495:496:494:497:495:495:499:508:507:496:488:505:516:508:509:505:507:514:546:760:969:735:469:553:534:525:528:533:536:542:549:555:565:576:585:596:614:619:621:636:634:608:569:529:496:471:463:470:469:466:468:473:471:475:477:480:487:487:488:492:488:489:502:497:497:499:497:500:502:513:512:505:506:509:507:511:509:514:516:524:554:759:968:777:466:555:536:531:532:537:540:548:554:560:570:578:589:601:615:624:632:636:633:618:584:544:514:496:484:480:480:480:483:485:485:489:496:497:497:500:501:502:505:506:505:506:507:505:504:510:512:517:512:","Acceleration = 78.45i -78.45j 6.74k  m/s^2 , Gyro = -0.45i 1.42j -0.40k  rad/s","23:27:52"],["115","36.13","111","497:497:495:497:502:504:513:546:751:960:706:463:545:528:516:521:526:532:537:543:553:561:570:581:594:602:608:614:615:605:579:540:504:482:470:464:460:463:464:464:466:468:473:475:477:481:484:486:487:488:488:490:489:489:489:495:502:499:494:495:494:495:497:499:502:507:537:748:961:762:459:543:524:517:518:523:526:534:541:545:555:567:579:586:600:607:614:613:608:588:548:513:489:475:468:465:465:468:470:474:474:477:482:484:487:488:492:494:496:497:497:499:498:499:502:501:501:504:505:505:506:509:508:512:512:511:512:516:524:526:522:522:521:523:525:526:524:528:534:650:916:1000:546:525:552:531:530:532:535:541:545:552:559:567:577:584:595:605:609:615:619:615:596:564:528:505:487:478:475:474:476:478:477:483:485:485:487:488:488:492:493:496:495:500:499:496:499:498:501:501:501:504:506:505:506:509:506:506:507:508:","Acceleration = 78.45i -78.45j 7.89k  m/s^2 , Gyro = -0.02i 0.03j -0.00k  rad/s","23:28:16"],["61","35.94","95","588:842:913:483:511:544:525:532:530:534:533:549:566:576:585:597:608:616:622:626:619:617:596:564:526:504:487:485:474:470:481:485:482:487:493:496:494:501:502:505:506:506:502:502:509:506:514:499:501:499:499:500:499:497:506:521:607:844:909:505:505:553:517:519:524:528:537:538:546:560:571:579:590:593:597:606:605:595:583:555:518:490:477:474:456:457:459:466:470:465:477:476:482:484:486:487:489:483:488:489:498:501:495:489:490:488:494:489:493:496:511:568:782:908:584:476:542:517:516:522:522:531:542:544:552:560:565:576:589:601:600:600:594:577:548:518:492:473:463:459:461:462:464:468:470:470:474:481:487:483:484:497:490:490:495:493:504:507:501:498:499:506:504:509:508:516:528:594:822:938:579:505:560:540:537:543:544:546:562:567:572:586:595:601:609:617:621:622:617:603:579:538:410:468:570:560:554:540:516:501:","Acceleration = 78.45i -78.45j 7.86k  m/s^2 , Gyro = -0.04i 0.01j -0.01k  rad/s","23:28:38"],["55","36","85","521:525:526:532:537:545:554:564:576:586:598:615:626:636:633:629:607:561:521:489:476:462:458:459:459:460:463:465:469:474:476:483:483:485:487:488:492:487:489:493:495:494:502:502:495:495:497:497:501:502:502:511:517:631:907:948:507:534:540:524:526:526:530:537:543:553:561:569:583:595:608:618:625:625:618:592:554:513:490:474:464:463:464:468:470:471:475:481:485:487:489:494:496:496:497:498:499:496:498:497:495:498:507:509:505:502:504:505:509:512:512:514:521:536:714:957:878:465:543:532:518:522:525:530:535:542:546:557:569:580:590:603:614:619:619:612:586:547:512:488:473:464:463:464:465:470:471:475:480:481:484:485:489:492:493:493:496:502:504:505:504:506:507:505:507:514:512:505:507:506:507:507:509:514:517:523:592:835:965:603:498:552:528:525:529:534:541:545:554:561:568:580:589:602:613:622:625:624:609:579:","Acceleration = 78.45i -78.45j 7.84k  m/s^2 , Gyro = -0.04i 0.02j -0.01k  rad/s","23:29:01"],["58","35.75","0","526:525:526:533:535:541:553:566:576:585:595:616:617:630:633:622:600:552:508:488:478:464:464:466:462:465:471:475:475:476:480:488:493:496:490:496:497:501:501:497:500:502:505:500:507:507:505:506:516:518:518:516:512:514:513:520:518:516:523:585:824:989:677:490:556:534:522:532:531:540:545:544:559:568:570:586:600:614:615:628:627:617:589:546:514:490:478:473:463:471:474:480:480:481:482:488:487:488:496:501:495:498:505:502:502:501:500:505:504:499:502:504:501:507:521:517:509:508:508:516:516:509:512:519:528:684:936:921:481:530:542:525:525:529:526:534:540:548:552:562:577:586:598:616:618:621:625:595:561:521:488:473:465:458:457:460:462:463:462:469:470:474:471:478:481:481:482:482:485:484:487:488:488:488:488:494:501:499:498:495:496:499:502:502:506:508:513:577:837:994:598:494:548:528:524:532:533:540:546:560:","Acceleration = 78.45i -78.45j 7.86k  m/s^2 , Gyro = -0.05i 0.02j -0.00k  rad/s","23:29:25"],["56","35.69","111","514:514:521:520:518:522:519:652:933:1012:513:485:524:511:520:522:518:522:524:534:538:537:545:549:562:566:569:578:577:559:552:543:534:531:514:507:495:487:484:480:483:487:486:493:489:494:494:494:497:488:492:498:493:494:497:499:500:499:502:499:505:502:493:496:506:512:517:512:504:511:519:520:521:523:580:824:1024:712:446:535:514:516:520:522:532:528:541:547:552:561:564:568:576:591:586:585:574:562:545:525:514:512:495:485:480:474:475:469:478:485:484:485:488:488:484:480:474:475:474:469:469:465:475:488:499:497:489:499:502:498:499:504:512:530:668:934:932:457:498:520:504:509:520:518:522:523:534:544:545:555:567:568:572:580:580:569:562:553:537:525:512:498:494:488:489:489:495:500:506:509:516:519:520:522:521:517:521:524:517:517:517:508:516:518:526:537:521:525:520:520:522:526:528:530:596:834:1018:693:475:552:","Acceleration = 78.45i -78.45j 5.20k  m/s^2 , Gyro = -0.00i -0.03j -0.01k  rad/s","23:29:48"],["49","35.75","115","516:514:521:521:521:526:595:816:942:606:490:554:542:532:536:549:545:556:568:573:579:591:589:601:596:590:589:567:562:548:526:516:506:504:501:502:507:513:508:512:514:513:512:513:518:520:514:508:526:528:513:514:513:519:518:519:523:535:634:889:905:474:528:553:538:536:547:548:546:561:574:574:584:595:600:604:600:593:576:559:537:516:499:486:481:469:468:476:473:478:482:485:487:484:481:489:486:486:486:496:497:489:483:486:489:486:492:489:507:520:674:906:772:441:532:522:516:518:522:525:533:542:550:553:567:577:579:585:580:572:558:548:526:504:488:473:469:469:474:473:477:478:483:480:487:493:493:488:485:494:496:496:506:502:499:496:496:502:499:502:509:516:534:694:893:778:459:542:540:524:531:542:546:548:561:568:571:584:591:596:605:596:588:580:561:541:521:502:493:486:488:488:489:489:499:499:497:500:499:498:","Acceleration = 78.45i -78.45j 8.10k  m/s^2 , Gyro = 0.32i 0.06j -0.45k  rad/s","23:30:11"],["45","35.5","107","485:486:493:493:496:502:501:504:501:504:499:507:514:514:507:506:504:511:506:507:513:516:523:619:855:920:516:501:546:525:525:529:541:544:549:560:567:580:590:602:612:619:621:616:601:571:536:509:493:483:478:478:477:478:483:487:489:494:489:496:498:497:504:501:497:501:505:512:502:500:498:500:502:500:505:502:512:542:739:939:756:438:541:528:520:526:528:535:540:550:562:574:582:593:613:618:618:619:614:584:557:521:494:481:471:465:470:471:473:475:478:481:486:487:488:494:497:495:501:504:504:508:507:496:499:501:504:502:506:510:516:562:786:970:624:461:552:530:526:528:534:542:549:556:576:581:595:608:619:631:632:630:613:580:542:507:483:475:470:465:468:470:469:471:477:483:487:487:487:497:494:494:499:499:498:497:502:511:508:498:497:500:501:505:505:507:514:523:676:941:896:449:535:535:524:530:531:537:544:554:","Acceleration = 78.45i -78.45j 7.87k  m/s^2 , Gyro = -0.06i 0.02j -0.02k  rad/s","23:30:35"],["50","35.19","102","560:565:579:592:601:620:634:645:650:646:634:598:554:516:492:478:470:472:473:475:475:475:480:483:485:488:494:496:498:500:500:501:501:502:504:504:502:507:513:508:506:505:506:508:511:509:511:518:541:753:999:771:459:550:532:524:526:532:536:543:552:560:569:581:594:606:618:627:627:622:607:573:532:499:485:473:469:469:468:470:475:475:476:481:485:489:492:493:495:496:496:497:496:496:496:498:498:502:505:513:512:505:506:507:506:511:512:512:518:534:687:934:905:466:531:541:526:530:532:538:544:552:560:567:578:588:603:614:622:629:628:615:589:550:517:495:483:475:473:475:478:481:483:485:486:487:488:494:496:495:497:500:504:504:498:501:502:504:505:508:517:517:509:508:508:512:513:513:516:517:526:600:823:957:620:484:552:532:530:533:537:543:548:554:566:572:583:595:608:619:624:622:615:595:561:525:501:486:478:476:","Acceleration = 78.45i -78.45j 7.89k  m/s^2 , Gyro = -0.03i 0.01j 0.00k  rad/s","23:30:58"],["56","35.06","86","509:508:509:508:516:520:614:852:908:499:507:546:525:528:533:534:540:550:556:564:573:582:595:606:610:615:609:601:585:554:521:502:486:478:478:478:477:481:483:489:493:495:497:497:499:499:498:502:500:502:500:502:511:506:504:501:499:501:502:502:505:508:521:626:865:893:478:507:546:522:526:528:537:543:552:555:570:581:590:604:617:621:625:627:609:589:556:520:497:485:477:475:475:474:475:477:483:489:487:495:496:497:496:498:504:502:504:505:509:508:502:499:501:506:504:505:511:516:535:720:941:740:442:544:534:525:526:531:537:543:550:557:570:581:594:603:613:620:619:615:596:571:528:499:484:474:468:465:468:471:476:476:480:485:488:489:488:495:496:497:499:497:498:497:499:501:511:508:502:502:504:506:506:508:512:513:526:643:877:893:473:528:542:525:526:531:533:541:553:557:566:577:585:598:607:617:625:621:608:592:","Acceleration = 78.45i -78.45j 8.07k  m/s^2 , Gyro = -0.05i 0.01j -0.00k  rad/s","23:31:22"],["56","34.88","89","518:513:506:507:506:508:509:513:513:518:526:603:843:966:595:489:554:531:526:532:534:541:550:556:562:572:585:598:610:626:634:642:639:627:595:553:514:494:480:471:470:474:473:476:476:480:483:485:487:490:494:494:495:498:498:500:498:501:501:499:502:504:506:506:508:507:507:508:512:511:513:516:525:522:518:518:519:521:524:525:525:532:545:701:950:913:471:542:550:533:533:535:540:545:552:556:567:576:586:601:613:625:634:638:634:619:585:542:514:493:480:475:474:474:474:476:478:481:483:486:487:488:489:496:496:497:498:498:498:499:501:502:501:501:504:505:506:508:507:509:512:512:511:513:522:522:518:517:516:518:518:520:522:522:532:617:850:965:596:496:553:532:528:532:534:542:546:554:559:569:580:593:602:618:628:634:634:627:602:557:521:498:485:476:472:474:473:475:474:478:483:483:486:486:487:490:495:494:497:498:","Acceleration = 78.45i -78.45j 8.95k  m/s^2 , Gyro = -0.04i 0.00j -0.01k  rad/s","23:31:47"],["49","35","90","518:524:508:513:516:520:529:535:545:555:567:578:590:606:618:624:626:619:593:550:510:482:470:461:459:454:457:459:465:470:471:475:475:478:478:481:485:489:488:481:481:483:484:485:488:489:505:565:769:884:586:474:536:517:513:518:522:526:534:542:550:560:571:585:597:609:619:619:614:597:560:520:489:470:460:459:458:458:462:465:470:473:477:480:481:484:483:486:489:494:493:486:485:487:487:489:495:495:512:597:801:873:526:489:536:517:517:520:524:531:535:543:552:561:570:583:593:604:607:606:604:586:556:518:495:477:470:465:466:469:471:475:476:480:483:486:487:488:492:486:487:489:497:501:496:489:490:492:494:496:500:502:521:646:850:859:465:524:535:516:519:521:524:533:542:545:554:564:572:581:590:598:600:601:595:579:552:524:502:488:481:478:480:483:486:489:493:495:498:501:502:504:504:502:505:512:520:513:507:506:","Acceleration = 78.45i -78.45j 8.96k  m/s^2 , Gyro = -0.04i 0.01j -0.01k  rad/s","23:32:20"],["50","35.19","92","595:607:622:632:638:640:627:605:565:520:494:477:468:464:463:462:465:466:465:471:475:478:481:485:487:488:494:493:495:493:499:498:494:489:494:489:494:500:497:504:518:644:904:862:448:523:533:516:520:524:526:534:542:550:556:572:585:598:614:624:630:632:625:598:558:516:488:470:461:461:461:460:464:466:471:475:475:483:483:485:485:489:492:490:493:493:490:495:495:497:504:502:496:496:498:500:502:505:505:513:524:665:910:877:470:534:538:525:523:531:534:537:546:555:562:576:588:600:614:628:633:632:627:608:568:528:499:482:473:471:469:469:471:476:478:482:484:485:487:492:493:495:496:498:498:499:500:502:501:502:502:505:504:506:507:508:509:513:521:520:513:512:514:513:517:518:519:522:534:620:862:952:566:511:554:534:533:535:541:545:554:560:567:577:585:600:613:624:633:640:639:632:603:561:523:497:484:475:472:474:","Acceleration = 78.45i -78.45j 8.88k  m/s^2 , Gyro = -0.04i 0.00j -0.00k  rad/s","23:32:45"],["56","35.06","104","469:470:473:475:478:482:483:486:488:489:489:494:495:495:493:495:498:509:506:497:497:495:497:499:501:504:511:526:646:882:890:483:533:542:525:528:531:535:541:548:556:565:574:588:600:613:625:634:637:633:617:579:540:508:490:483:478:481:483:485:487:488:493:496:497:499:506:509:513:517:513:516:517:518:520:524:531:533:528:521:521:525:525:525:528:528:542:626:856:932:554:524:567:543:542:545:546:553:562:568:577:584:593:605:614:625:629:628:629:616:583:546:517:496:483:478:475:475:476:480:483:485:487:489:492:493:493:494:496:493:494:495:493:496:501:507:502:496:497:498:498:502:504:504:516:548:728:907:694:459:552:531:522:525:528:534:537:547:554:561:573:583:591:601:607:613:608:602:582:547:517:496:480:475:473:475:474:478:484:484:486:489:495:497:496:495:498:499:499:496:498:498:508:512:501:500:501:504:506:509:","Acceleration = 78.45i -78.45j 8.86k  m/s^2 , Gyro = -0.04i 0.01j -0.00k  rad/s","23:33:09"],["54","35.13","88","486:489:493:496:499:502:501:501:501:501:505:502:513:513:505:505:506:506:508:511:509:516:536:673:872:805:449:537:542:530:528:534:540:543:550:556:567:576:585:594:604:607:609:608:602:582:552:522:502:489:483:480:481:480:483:485:489:494:497:497:498:500:500:502:502:499:501:506:512:507:501:499:506:507:502:506:508:521:607:812:858:496:495:545:522:526:525:534:542:550:555:566:578:589:601:616:619:625:626:622:606:578:548:524:500:492:489:487:487:492:493:495:498:502:502:504:506:505:507:507:512:511:500:500:502:500:498:500:502:513:526:655:877:742:436:538:532:526:528:533:536:542:552:559:570:582:593:606:613:619:621:616:601:577:537:504:486:473:466:468:468:469:471:474:480:483:482:485:489:492:495:492:494:495:504:505:496:493:493:495:495:496:499:502:519:601:817:866:481:508:543:524:524:528:534:537:545:555:561:571:","Acceleration = 78.45i -78.45j 8.83k  m/s^2 , Gyro = -0.05i 0.01j -0.01k  rad/s","23:33:33"],["58","35.25","101","627:622:613:585:543:517:493:478:476:476:474:477:480:478:486:484:488:488:495:500:494:498:497:499:499:501:502:502:502:505:504:517:506:508:507:506:511:509:512:517:518:546:730:919:774:452:545:538:529:529:535:536:542:549:556:576:577:588:600:610:620:626:621:614:590:550:519:494:481:478:475:476:475:477:478:480:486:487:490:493:496:498:497:498:499:498:499:500:498:505:504:513:508:505:501:502:504:507:506:516:514:535:678:905:826:444:534:535:531:533:534:535:542:552:559:568:582:591:598:621:627:632:636:625:602:571:531:500:484:477:473:474:477:477:476:476:483:489:490:495:496:496:494:499:502:505:502:504:504:507:504:505:504:502:500:507:507:509:523:625:871:890:469:521:552:529:530:533:542:547:558:566:573:583:594:608:624:637:640:640:633:607:562:521:496:483:469:463:470:469:470:468:473:471:473:478:482:487:492:488:","Acceleration = 78.45i -78.45j 8.88k  m/s^2 , Gyro = -0.04i 0.02j -0.01k  rad/s","23:33:56"],["45","35.44","90","553:562:569:581:595:603:615:626:625:617:600:564:525:499:487:474:470:473:476:476:478:482:482:486:487:494:495:493:497:502:502:502:501:501:499:504:512:514:502:504:505:504:507:507:512:513:520:618:866:926:507:509:543:525:525:526:535:540:546:557:562:568:583:594:609:621:624:627:627:605:573:532:506:489:477:474:469:477:470:481:481:480:485:486:494:496:498:497:504:504:502:504:504:502:501:501:506:502:508:512:518:516:507:511:507:513:514:514:519:523:535:690:931:881:462:537:544:522:529:537:537:542:549:556:565:570:589:600:617:624:630:636:626:604:568:532:505:484:480:478:474:475:471:478:480:481:481:485:490:486:492:495:498:499:495:495:495:494:500:495:499:501:505:498:502:507:511:514:507:508:506:511:507:513:513:511:521:594:847:957:560:493:555:531:526:533:538:541:546:557:565:579:583:601:617:632:645:645:649:640:","Acceleration = 78.45i -78.45j 8.87k  m/s^2 , Gyro = -0.04i 0.01j -0.01k  rad/s","23:34:22"],["58","35.63","60","497:495:496:497:497:499:502:510:507:500:501:501:502:506:507:508:514:538:721:918:746:447:545:531:525:525:532:536:542:549:556:561:571:581:590:601:608:613:614:607:591:559:524:499:485:477:471:471:473:474:477:480:480:486:488:492:494:494:494:494:495:495:495:495:498:502:509:504:498:502:499:502:504:505:506:514:546:750:916:679:453:546:531:524:528:531:533:543:547:555:565:572:581:592:601:607:609:610:604:584:554:522:502:487:478:475:475:475:480:480:484:487:492:494:495:497:497:499:499:501:500:498:500:506:513:510:504:505:506:508:507:509:513:520:544:725:909:732:450:549:534:525:528:533:537:542:549:559:566:576:585:593:601:607:608:607:600:586:559:525:505:494:484:482:480:481:486:488:490:494:499:496:496:499:501:504:500:498:499:498:505:504:495:493:492:493:496:496:499:498:512:555:760:904:610:450:549:529:528:526:","Acceleration = 78.45i -78.45j 8.80k  m/s^2 , Gyro = -0.05i 0.01j 0.01k  rad/s","23:34:48"],["46","35.63","106","495:490:489:498:494:494:499:502:507:504:499:499:502:502:505:507:507:518:549:765:950:662:470:552:531:528:528:533:542:548:556:562:572:583:595:605:618:630:634:633:627:604:567:528:501:484:477:474:475:476:475:477:482:487:489:492:494:497:499:496:498:497:499:499:500:502:502:510:509:501:504:505:506:505:507:510:519:538:693:917:811:459:546:543:531:533:534:541:546:555:565:571:581:589:604:615:626:633:634:628:609:572:533:507:487:478:475:476:475:483:483:485:489:493:494:498:498:502:504:504:505:505:505:506:511:510:520:519:508:512:511:513:514:517:518:523:541:676:904:856:471:545:552:537:540:543:546:554:561:570:577:585:592:606:619:629:634:636:631:615:581:542:513:495:485:480:480:481:483:484:488:489:495:497:498:499:501:505:505:506:504:504:504:507:507:516:516:507:507:508:508:510:513:514:520:533:639:869:880:481:","Acceleration = 78.45i -78.45j 8.84k  m/s^2 , Gyro = -0.04i 0.01j 0.03k  rad/s","23:35:12"],["49","35.38","103","529:531:535:542:545:555:561:570:578:591:602:610:619:619:616:605:574:534:506:493:480:480:477:477:478:480:480:483:485:493:493:493:495:497:497:498:498:496:497:501:508:507:494:497:500:495:504:501:506:513:541:720:915:715:441:546:534:520:526:532:536:542:554:565:571:580:595:607:619:630:637:633:619:589:544:514:487:475:470:468:466:468:471:474:475:477:483:483:488:492:493:496:497:497:498:505:502:495:494:494:499:498:501:505:511:522:632:871:848:456:529:542:525:525:531:535:540:546:555:566:576:588:601:615:622:627:629:621:595:550:509:487:474:464:463:465:465:466:466:471:474:480:483:484:486:489:492:494:492:493:495:495:495:497:500:502:502:498:497:501:500:502:506:507:518:553:747:918:686:469:553:532:528:533:535:540:543:550:559:569:579:591:605:617:625:627:627:615:588:546:514:489:477:474:471:470:473:475:478:482:","Acceleration = 78.45i -78.45j 8.83k  m/s^2 , Gyro = -0.04i 0.02j -0.00k  rad/s","23:35:36"],["50","35.63","100","569:579:590:601:612:621:626:626:619:600:562:526:502:487:482:478:478:480:483:486:490:489:495:497:501:504:502:504:504:506:507:507:506:508:513:518:513:509:511:513:514:514:517:518:531:559:730:903:710:471:567:546:540:541:545:552:556:561:572:581:591:603:612:625:628:631:628:617:592:554:522:500:487:485:483:484:486:487:489:493:495:499:504:502:504:505:505:506:506:507:508:506:509:516:516:508:508:507:510:511:514:514:519:534:609:821:884:517:517:558:536:534:538:543:549:554:561:568:577:585:598:607:615:621:624:618:601:566:528:504:487:478:474:473:475:476:480:483:486:488:493:494:495:496:497:496:497:497:497:498:498:508:509:498:496:501:498:502:501:506:516:528:645:857:834:457:531:544:524:522:528:532:536:545:552:560:574:580:595:605:610:610:619:605:586:562:516:489:483:474:470:465:474:470:480:483:480:485:489:495:","Acceleration = 78.45i -78.45j 8.80k  m/s^2 , Gyro = -0.04i 0.01j -0.01k  rad/s","23:36:00"],["55","35.38","97","464:465:469:474:474:478:484:486:487:489:489:493:492:488:493:501:502:494:494:493:495:495:497:499:504:519:600:819:894:518:501:544:524:522:524:531:534:542:550:560:567:579:593:605:617:624:627:620:601:565:525:498:482:473:468:469:471:473:475:477:482:483:487:488:490:494:496:496:497:497:497:497:502:507:501:497:498:500:501:502:505:505:517:560:763:918:628:473:550:526:524:526:531:533:541:549:557:567:577:589:601:614:621:622:619:607:574:531:501:485:474:469:469:469:471:475:475:480:478:484:487:488:492:493:495:496:496:499:494:496:506:508:506:500:500:504:505:505:504:507:520:586:811:914:564:490:546:526:522:526:530:534:542:546:559:569:580:591:605:615:622:624:619:606:569:532:504:486:476:473:473:476:474:472:477:481:484:488:490:495:493:495:495:496:498:500:502:499:501:512:511:498:504:507:509:512:510:517:522:538:","Acceleration = 78.45i -78.45j 8.74k  m/s^2 , Gyro = -0.03i -0.01j 0.01k  rad/s","23:36:23"],["58","35.69","101","529:540:541:546:556:566:579:585:597:607:618:620:619:617:593:561:520:497:484:475:473:474:476:475:475:481:485:487:488:493:494:496:497:499:501:500:501:499:497:501:513:512:505:504:504:507:510:506:511:513:522:576:800:936:617:483:553:529:529:531:531:541:544:552:559:570:581:591:598:608:621:622:615:604:573:534:504:487:476:470:469:470:470:476:477:481:483:489:489:493:494:498:498:496:497:500:500:508:512:505:502:505:504:505:507:508:512:522:573:777:915:616:475:552:529:529:531:534:538:544:549:560:571:578:592:604:615:619:622:616:604:573:532:506:489:478:475:475:475:478:476:483:485:486:490:495:500:499:496:499:501:497:499:506:513:506:502:498:504:506:506:507:509:522:588:812:910:550:487:550:522:526:532:534:538:547:558:565:572:581:596:608:617:624:628:619:601:574:533:506:489:480:474:474:475:478:478:478:486:489:","Acceleration = 78.45i -78.45j 8.82k  m/s^2 , Gyro = -0.05i 0.02j -0.01k  rad/s","23:36:47"],["64","35.56","93","497:497:499:499:501:502:499:501:502:506:512:509:506:506:506:508:511:512:512:520:530:681:927:853:457:544:546:533:532:535:541:546:555:566:573:579:592:603:619:629:637:640:633:609:570:531:502:486:471:468:470:470:471:471:476:478:485:487:487:492:492:494:495:498:497:498:502:506:498:497:498:499:497:499:501:502:514:558:772:941:626:475:548:529:521:524:531:538:543:549:559:570:579:592:605:617:626:631:628:615:583:540:505:483:471:465:464:465:465:470:473:475:481:484:486:488:489:492:494:495:496:496:494:494:495:506:502:498:496:498:499:502:502:504:507:518:616:860:926:513:505:543:521:520:523:529:534:541:546:555:566:577:589:601:612:619:619:617:602:567:528:501:484:474:470:469:470:471:474:476:480:483:485:488:492:492:493:495:494:496:497:495:499:506:507:499:498:498:499:501:502:506:507:512:554:764:936:690:458:545:","Acceleration = 78.45i -78.45j 8.79k  m/s^2 , Gyro = -0.04i 0.01j -0.00k  rad/s","23:37:12"],["51","35.69","74","504:500:506:507:506:510:514:537:735:938:771:450:545:532:520:521:525:532:537:542:553:561:572:582:595:604:614:622:625:618:604:568:532:502:482:474:470:465:469:469:469:475:476:478:482:486:488:492:489:493:492:493:495:493:494:493:496:495:498:502:507:504:499:499:501:504:505:508:507:514:532:703:944:793:450:543:534:524:526:530:534:540:547:560:567:577:588:600:613:626:632:632:630:610:572:531:499:481:468:463:465:465:465:469:471:473:473:478:480:483:487:489:489:493:493:494:494:493:493:494:494:505:505:498:497:497:497:501:501:502:506:513:567:795:941:615:474:545:525:521:524:528:534:542:548:558:566:574:586:598:610:618:627:625:617:590:549:513:488:475:470:466:468:469:471:473:476:480:483:484:486:489:494:494:495:496:497:497:497:497:500:499:500:501:502:513:514:506:506:507:509:512:513:514:517:524:609:843:945:572:","Acceleration = 78.45i -78.45j 8.77k  m/s^2 , Gyro = -0.04i 0.01j -0.01k  rad/s","23:37:34"],["60","35.5","94","496:496:497:497:498:502:507:505:501:505:501:504:506:507:508:514:525:670:926:855:456:541:543:531:530:533:537:543:553:560:568:579:590:603:617:630:639:644:637:619:581:537:502:482:473:469:466:469:471:470:473:475:478:483:485:488:493:496:499:497:499:497:498:499:498:500:502:513:511:504:504:502:506:507:509:512:514:522:585:826:953:594:487:552:530:526:529:535:537:544:552:559:567:578:588:601:616:627:631:633:625:602:561:522:498:482:475:470:471:475:476:474:480:483:486:488:493:495:496:495:496:496:499:501:499:498:505:505:512:508:504:504:505:507:507:511:513:518:526:641:881:921:506:519:548:531:531:533:536:542:548:556:566:574:585:595:608:622:632:636:634:625:593:552:518:496:483:480:476:477:478:483:484:486:488:489:494:496:499:501:502:504:504:502:504:505:512:516:509:508:507:509:510:512:513:516:522:545:724:924:","Acceleration = 78.45i -78.45j 8.76k  m/s^2 , Gyro = -0.04i 0.01j -0.01k  rad/s","23:37:57"],["63","35.75","94","468:470:476:478:481:483:483:485:487:487:489:488:490:494:492:494:493:499:504:495:494:496:497:499:499:502:505:509:532:716:942:778:448:544:532:521:524:528:533:540:545:554:566:576:589:601:615:628:636:639:637:618:578:531:497:478:466:461:461:462:464:464:466:469:475:477:478:483:485:487:489:489:492:493:490:490:494:494:495:496:498:506:512:505:501:504:505:507:507:511:513:518:538:718:941:823:454:544:540:526:530:532:541:545:553:559:567:577:588:600:613:626:636:638:636:620:586:543:511:488:477:473:470:471:474:475:477:483:483:485:489:493:495:496:497:495:496:495:496:498:499:499:500:501:504:513:508:504:505:505:508:509:512:513:518:532:681:916:886:468:532:544:528:530:532:535:542:548:555:565:573:583:595:609:621:632:633:634:622:589:545:513:489:476:470:465:469:468:469:474:476:477:481:487:488:487:489:489:494:492:","Acceleration = 78.45i -78.45j 8.75k  m/s^2 , Gyro = -0.05i 0.02j -0.00k  rad/s","23:38:20"],["56","35.81","52","518:506:508:508:508:509:508:511:514:518:554:760:954:752:460:549:533:525:526:531:534:542:548:554:562:572:581:594:605:617:628:629:628:615:579:532:504:483:471:468:465:470:469:469:471:475:475:482:483:483:485:489:489:489:490:492:492:494:493:494:499:499:507:506:498:501:504:504:505:501:506:509:518:606:857:952:541:499:549:531:528:533:534:542:549:556:568:574:589:602:616:630:638:649:648:640:613:569:525:501:484:470:468:468:469:471:475:476:482:484:486:488:492:492:493:494:496:497:495:495:496:498:504:509:505:501:501:502:502:504:506:508:517:526:680:934:866:457:535:536:524:525:528:533:541:545:554:561:572:582:596:609:622:629:633:630:617:585:542:511:487:474:469:466:468:469:471:474:475:480:484:488:488:492:493:493:494:495:495:494:496:497:497:496:500:505:513:508:502:506:507:507:508:510:511:516:530:679:924:904:","Acceleration = 78.45i -78.45j 9.39k  m/s^2 , Gyro = -0.09i 0.03j 0.01k  rad/s","23:38:44"],["43","35.94","95","640:645:645:636:602:558:517:489:474:466:465:462:465:465:468:470:470:476:480:482:488:489:489:489:493:495:495:495:497:497:499:495:496:499:509:507:504:504:504:506:507:507:509:510:520:603:854:945:538:504:552:528:525:526:533:538:545:550:559:568:579:589:604:615:627:636:637:632:608:566:523:495:477:468:466:466:469:469:469:470:476:480:482:485:485:487:492:494:493:495:494:494:495:494:497:498:502:499:500:502:513:510:504:506:506:507:510:509:513:514:522:594:821:955:619:482:552:531:526:530:533:537:544:550:560:568:577:588:601:613:626:633:639:636:621:581:542:507:487:475:473:473:472:474:476:477:480:483:486:488:490:493:494:495:498:499:499:499:499:499:499:499:502:502:502:505:512:518:512:509:509:510:512:511:514:517:521:534:685:924:890:468:534:543:528:530:532:537:542:546:553:562:572:579:592:605:620:630:637:638:","Acceleration = 78.45i -78.45j 8.61k  m/s^2 , Gyro = -0.04i 0.02j -0.01k  rad/s","23:39:10"],["46","36","97","558:566:582:595:606:620:627:632:629:607:568:524:497:475:468:464:461:466:464:466:469:470:477:475:480:481:485:489:487:493:490:493:495:492:493:499:504:500:495:497:498:498:500:501:504:508:522:680:937:849:448:534:535:520:521:528:531:540:546:555:564:574:584:596:607:621:631:638:637:618:581:537:502:483:471:465:464:466:468:469:473:475:476:478:483:485:488:493:495:495:496:496:497:496:498:498:499:499:500:501:507:514:510:507:506:507:510:512:514:514:518:525:646:894:941:506:517:544:525:528:531:533:538:546:554:561:572:584:594:605:619:632:633:637:629:605:565:526:500:486:477:476:476:477:477:481:482:485:487:493:494:497:499:499:501:502:502:502:506:505:506:507:505:504:508:514:520:516:513:513:512:516:514:517:518:521:541:713:941:874:464:545:544:530:531:534:538:546:549:557:567:577:585:595:608:621:632:639:639:622:","Acceleration = 78.45i -78.45j 8.57k  m/s^2 , Gyro = -0.04i 0.01j -0.01k  rad/s","23:39:35"],["52","35.94","87","490:489:495:501:499:504:502:502:508:508:506:507:509:514:514:510:506:502:504:506:505:506:512:511:522:652:913:912:473:525:541:523:522:522:528:530:536:545:554:565:573:586:597:607:613:615:615:598:567:525:495:475:463:459:456:458:459:463:464:465:470:475:478:482:483:485:486:486:487:487:487:487:485:488:494:498:493:492:488:489:493:493:495:497:501:518:679:920:870:448:519:525:512:513:517:520:526:534:544:550:561:572:583:595:606:614:619:618:607:578:542:511:490:478:476:475:476:478:481:485:487:493:496:497:499:504:505:509:511:508:512:514:514:514:514:518:522:531:528:521:521:523:525:526:526:529:532:542:675:915:942:499:544:561:543:545:550:553:561:566:574:585:592:598:608:621:631:638:643:642:633:608:570:538:517:502:496:493:496:498:497:499:499:502:505:509:507:508:507:508:509:509:507:507:508:507:506:509:507:507:","Acceleration = 78.45i -78.45j 8.56k  m/s^2 , Gyro = -0.04i 0.02j -0.01k  rad/s","23:40:00"],["45","36.06","91","561:537:537:542:545:553:559:567:577:586:596:606:618:634:643:648:646:641:615:572:543:518:504:497:495:497:496:499:505:509:512:512:516:517:521:521:522:524:521:522:523:524:531:530:524:520:523:519:522:525:522:528:532:585:808:953:663:481:559:537:533:537:537:543:548:554:564:571:581:591:603:614:626:631:631:627:607:567:528:500:483:474:470:470:470:473:476:478:478:480:486:488:492:493:489:493:495:493:489:492:492:489:501:501:494:496:495:495:500:497:498:505:513:585:826:950:557:483:542:521:518:520:522:532:537:545:557:566:573:586:596:613:627:631:632:625:592:548:513:484:471:461:458:459:459:461:464:465:470:474:475:477:482:482:485:487:487:486:487:486:494:495:488:487:490:489:490:495:495:495:506:546:768:955:655:464:545:519:516:518:523:525:536:541:552:564:572:586:598:609:621:629:629:620:601:552:511:486:470:463:","Acceleration = 78.45i -78.45j 8.56k  m/s^2 , Gyro = -0.04i 0.01j -0.00k  rad/s","23:40:26"],["57","36.06","96","514:517:520:525:529:536:544:554:565:572:589:598:607:617:617:613:601:568:525:497:474:466:459:458:461:463:465:466:473:477:477:481:484:486:485:488:492:488:489:487:495:498:495:493:489:488:493:494:497:500:510:532:710:938:757:446:542:531:521:522:526:533:538:548:558:565:576:586:601:613:624:630:629:624:608:568:526:498:480:471:468:468:469:470:474:475:478:483:487:490:494:495:496:497:499:498:499:497:499:499:511:509:502:504:505:505:506:506:510:511:521:600:838:939:550:502:553:531:530:531:535:543:549:559:565:572:581:593:606:617:628:633:631:621:595:556:520:498:483:476:476:476:476:477:482:485:487:489:493:496:497:500:499:500:499:499:499:499:497:501:507:512:506:504:502:504:506:505:507:509:514:526:674:909:884:468:529:541:522:525:529:534:538:546:554:559:568:579:591:601:615:622:627:626:616:580:540:508:487:476:","Acceleration = 78.45i -78.45j 8.90k  m/s^2 , Gyro = -0.17i -0.04j -0.07k  rad/s","23:40:51"],["65","36.06","0","536:542:547:552:560:568:576:585:594:604:613:615:615:610:598:572:541:510:486:478:476:474:476:480:486:489:495:506:506:506:509:512:509:514:521:528:535:548:550:545:553:566:581:594:601:601:609:634:798:993:891:541:637:634:621:626:631:633:640:646:656:666:678:684:692:708:710:714:715:704:686:654:618:588:567:553:546:543:543:546:550:550:548:548:548:555:562:570:573:582:600:619:643:662:672:685:714:735:736:744:746:746:759:894:1024:1024:680:721:741:710:709:708:697:693:708:708:706:704:705:713:712:713:709:700:680:656:618:577:542:516:499:487:470:464:446:437:430:409:409:403:402:410:406:399:397:390:391:396:393:387:386:374:377:376:377:380:376:387:440:643:792:465:339:433:410:406:404:415:424:438:452:466:497:513:521:533:550:562:569:572:567:546:517:489:469:453:448:447:449:456:459:466:468:470:471:480:476:483:487:493:","Acceleration = 78.45i -78.45j 8.76k  m/s^2 , Gyro = -0.05i 0.02j -0.01k  rad/s","23:41:13"],["51","36.13","102","495:495:497:506:505:496:496:497:494:499:500:502:506:518:604:857:931:526:507:553:531:533:534:537:544:552:559:569:579:589:602:617:630:638:641:642:628:597:552:516:489:475:466:464:465:468:466:470:472:476:480:484:487:488:488:493:490:494:496:497:497:496:500:499:508:507:501:504:504:504:505:508:509:513:521:596:820:938:606:488:554:534:529:535:538:543:548:555:564:573:583:595:606:616:626:632:633:622:601:561:525:497:480:471:468:465:469:470:474:481:481:485:485:492:493:492:494:494:495:494:496:496:495:497:505:505:499:497:498:499:502:505:506:508:519:605:823:918:569:490:547:528:528:530:535:538:544:553:560:570:579:590:604:615:625:629:632:621:595:555:522:500:483:477:476:477:476:478:481:484:487:488:494:493:494:495:499:498:498:501:500:500:502:502:504:512:512:507:506:507:507:508:509:509:511:521:578:797:937:628:","Acceleration = 78.45i -78.45j 8.88k  m/s^2 , Gyro = -0.05i -0.03j 0.08k  rad/s","23:41:39"],["55","36","94","499:512:522:703:930:756:433:538:529:523:528:532:535:544:552:560:567:581:589:604:614:625:629:627:621:604:570:528:502:485:469:470:466:469:471:475:475:480:482:486:490:495:492:497:496:495:496:499:505:501:499:498:501:501:502:505:507:513:531:655:897:867:454:530:549:531:533:538:543:550:556:565:577:585:595:606:616:628:634:633:628:609:578:540:508:492:478:476:475:476:477:478:480:486:488:489:493:496:497:499:498:498:497:498:497:505:505:497:501:501:502:501:505:505:507:517:596:824:919:543:489:544:523:522:525:530:535:543:550:557:568:578:586:597:607:613:617:615:604:579:543:513:489:478:473:470:470:474:475:478:480:483:485:488:487:489:489:492:493:493:490:493:499:500:492:494:496:498:496:498:501:504:512:582:796:910:586:474:545:522:519:525:526:532:540:544:554:566:578:586:598:605:613:617:617:612:582:543:513:488:","Acceleration = 78.45i -78.45j 8.69k  m/s^2 , Gyro = -0.04i 0.01j -0.01k  rad/s","23:42:03"],["58","36","100","476:478:474:480:504:496:489:496:512:507:505:513:505:494:502:505:499:493:507:499:476:484:478:485:483:477:471:495:496:567:777:872:536:454:521:502:494:496:499:502:507:524:513:525:537:544:545:547:574:556:570:546:524:502:458:446:430:424:427:415:428:426:429:446:441:445:448:440:448:449:446:457:450:446:462:470:461:460:466:465:466:466:475:482:487:508:672:870:746:430:525:523:511:510:524:533:542:549:556:566:574:588:601:607:609:616:615:605:600:572:540:522:501:494:499:497:495:505:512:509:516:518:513:521:525:522:526:526:526:524:531:522:542:542:531:534:536:533:535:533:535:543:565:658:873:902:521:538:576:559:560:561:571:577:595:604:607:608:618:630:637:645:655:653:653:636:627:594:557:545:542:532:524:524:525:526:523:525:533:537:530:535:526:530:533:534:531:543:552:544:533:534:536:536:546:543:544:549:588:796:","Acceleration = 78.45i -78.45j 8.66k  m/s^2 , Gyro = -0.05i 0.03j -0.00k  rad/s","23:42:26"],["62","35.75","91","494:496:498:498:497:494:497:504:494:488:502:510:525:514:504:508:508:507:508:518:514:525:531:627:855:900:506:517:560:535:534:538:541:544:558:562:571:577:583:595:605:621:631:633:630:621:605:566:531:502:489:483:471:475:477:473:480:486:489:487:488:493:494:493:492:495:488:482:487:489:495:494:495:494:488:485:496:499:495:495:502:499:514:644:893:858:435:521:547:532:525:530:537:544:552:562:577:580:596:607:619:632:645:646:644:628:594:547:508:482:468:459:453:456:458:456:461:463:465:470:473:477:478:482:485:483:487:489:488:493:496:493:489:489:493:493:497:496:498:506:524:686:920:822:435:531:535:523:522:524:532:537:545:559:566:576:589:600:609:626:630:629:626:608:568:531:497:480:474:464:464:462:464:466:461:477:476:476:494:486:487:490:485:485:492:498:505:502:499:498:497:493:498:496:498:501:507:528:714:949:","Acceleration = 78.45i -78.45j 8.68k  m/s^2 , Gyro = -0.02i 0.03j 0.03k  rad/s","23:42:49"],["38","35.69","94","505:507:513:518:529:689:916:796:445:535:545:528:526:530:536:542:549:553:562:574:581:594:596:598:609:607:602:584:559:531:506:489:482:480:476:481:486:488:489:494:498:495:495:502:498:499:502:497:497:500:504:509:507:499:500:507:508:507:506:513:514:548:741:919:702:459:546:540:530:537:541:544:555:566:573:580:588:598:609:619:622:621:626:617:605:571:541:518:494:488:489:485:492:493:495:501:501:505:505:504:507:510:509:510:509:514:522:513:502:507:512:511:504:509:513:519:550:758:972:680:459:554:537:535:535:535:542:547:554:564:571:580:597:604:620:627:626:619:615:585:546:512:492:476:462:465:465:465:470:474:470:476:480:485:483:482:489:482:485:487:488:490:489:493:486:484:488:484:484:492:488:496:558:768:903:542:468:532:520:519:518:522:532:536:543:555:561:573:588:598:607:609:610:607:600:578:534:499:478:468:","Acceleration = 78.45i -78.45j 8.82k  m/s^2 , Gyro = -0.04i 0.01j -0.01k  rad/s","23:43:13"],["42","35.69","82","561:569:578:590:601:612:625:636:637:636:626:593:553:520:499:485:476:475:476:476:477:482:487:486:489:493:497:497:500:498:499:497:502:497:499:499:500:505:512:512:504:505:505:508:511:511:512:517:526:622:857:929:528:504:555:533:533:537:544:547:555:560:567:584:591:601:615:629:643:645:648:641:615:569:533:498:482:474:469:470:471:474:477:474:480:485:486:490:493:494:496:494:496:498:494:495:505:509:502:499:500:499:501:501:506:506:511:535:734:950:740:446:546:534:525:528:533:538:546:556:560:570:581:591:608:621:632:643:643:640:619:579:532:499:477:464:461:460:461:464:462:466:470:474:477:482:482:487:489:488:489:490:489:489:488:489:498:502:496:495:495:497:498:500:502:505:511:542:747:944:735:447:545:531:522:524:530:535:542:549:558:567:574:586:600:614:625:633:636:632:615:578:536:505:486:474:471:474:474:474:","Acceleration = 78.45i -78.45j 8.77k  m/s^2 , Gyro = -0.05i 0.04j 0.01k  rad/s","23:43:37"],["49","35.63","95","566:573:586:595:609:619:634:642:643:634:610:564:525:493:480:470:465:462:465:469:470:470:473:476:482:480:486:487:488:494:494:493:489:493:489:493:493:500:504:499:496:500:498:499:500:501:506:512:543:748:948:666:458:550:534:525:530:531:538:543:554:562:569:582:592:607:620:632:640:649:642:621:583:537:505:480:469:463:463:464:465:464:468:471:473:478:480:484:486:488:489:492:492:494:495:494:497:495:495:499:507:508:504:502:502:504:504:507:509:514:518:538:722:934:819:451:545:542:529:534:535:543:546:554:561:568:576:585:596:610:626:633:639:638:625:594:553:519:495:484:476:473:474:476:477:480:483:486:488:490:494:493:496:496:498:498:498:499:499:499:500:502:505:513:508:504:504:506:505:507:508:509:513:522:607:831:924:572:489:554:529:528:532:535:540:545:553:560:568:579:590:601:615:622:628:632:627:606:568:529:","Acceleration = 78.45i -78.45j 8.75k  m/s^2 , Gyro = -0.04i 0.01j -0.00k  rad/s","23:44:01"],["57","36","98","858:906:499:511:550:528:525:532:533:543:552:558:567:573:586:600:610:619:632:639:636:626:597:553:514:489:475:466:464:468:465:465:469:473:475:477:483:485:488:488:490:489:489:489:493:493:493:501:501:494:493:494:495:496:498:502:502:509:538:737:937:711:448:546:532:523:525:531:535:540:546:554:565:574:584:598:608:618:626:627:619:597:558:517:488:474:466:460:461:462:463:464:466:470:476:480:483:484:484:486:487:489:488:488:488:490:490:489:493:494:499:505:498:496:496:499:499:499:501:505:509:530:704:913:832:451:535:533:520:523:528:532:536:543:549:559:569:578:588:598:610:618:619:620:605:576:534:506:486:474:468:465:468:469:469:474:477:480:483:486:489:493:493:494:494:497:496:495:497:497:497:498:505:511:504:504:505:506:504:507:508:510:514:535:708:914:808:454:543:537:525:530:534:535:541:546:556:566:572:582:","Acceleration = 78.45i -78.45j 8.79k  m/s^2 , Gyro = -0.04i -0.00j -0.01k  rad/s","23:44:25"],["52","36","97","512:513:514:516:523:547:737:953:778:461:556:542:532:534:541:544:549:556:565:574:581:593:602:616:625:627:629:622:604:567:530:504:487:480:477:476:476:477:478:482:487:487:493:496:499:500:501:499:499:502:501:499:499:502:506:512:508:504:504:504:506:507:509:513:516:533:689:913:873:466:535:544:529:532:534:538:544:552:558:567:577:585:595:607:618:626:627:624:607:576:536:508:489:478:477:475:476:476:480:483:486:488:493:496:498:499:502:502:502:504:504:505:506:502:506:508:519:514:507:510:511:511:514:514:519:519:528:654:892:912:498:528:554:532:532:536:541:544:549:556:565:576:585:595:604:616:624:627:626:612:579:543:509:487:473:470:469:470:470:474:476:477:478:485:488:490:494:495:496:495:495:496:495:496:499:504:508:501:498:498:499:502:502:507:506:514:531:679:931:854:452:541:542:528:529:536:541:545:553:564:","Acceleration = 78.45i -78.45j 8.77k  m/s^2 , Gyro = -0.05i 0.02j -0.01k  rad/s","23:44:50"],["50","35.88","94","579:591:601:616:628:636:641:637:617:578:535:504:486:476:474:473:472:473:477:481:481:483:486:490:493:494:499:497:497:498:500:500:499:500:500:502:502:500:501:502:508:513:508:504:506:506:508:509:512:512:516:530:668:898:903:483:526:544:525:525:532:535:543:546:553:561:568:580:591:603:619:628:633:632:622:590:546:514:489:478:470:470:469:471:475:476:478:482:484:488:489:490:493:492:495:497:499:497:499:501:501:500:501:505:505:502:504:505:516:517:506:509:507:508:512:512:516:516:523:567:784:953:702:470:556:535:529:531:535:538:549:552:562:567:578:591:598:613:627:633:637:637:615:576:532:504:485:474:470:469:469:471:472:476:476:480:483:480:488:492:490:493:494:497:494:496:498:496:498:501:498:500:505:513:504:499:504:502:504:506:508:514:517:530:660:908:894:468:533:550:534:534:533:540:546:552:559:571:581:590:","Acceleration = 78.45i -78.45j 8.78k  m/s^2 , Gyro = -0.04i 0.01j -0.00k  rad/s","23:45:16"],["57","35.94","89","785:459:549:535:526:531:535:538:543:549:556:566:576:585:595:610:621:627:637:632:616:578:535:505:486:474:466:466:470:468:468:472:474:477:478:482:484:484:488:489:492:489:493:493:495:493:492:497:502:506:498:499:499:498:500:500:506:508:509:534:721:943:792:448:544:536:526:528:533:540:545:553:560:567:578:589:603:617:632:640:643:641:622:583:540:505:482:469:463:465:462:466:466:465:470:474:475:482:484:487:489:489:492:492:493:493:493:494:496:496:505:506:501:498:499:499:501:501:506:507:512:522:673:913:868:456:531:541:525:526:528:533:540:544:549:560:567:581:594:606:617:627:631:633:618:585:543:507:484:474:465:465:468:468:471:473:475:477:483:484:488:489:493:493:493:494:496:497:499:497:498:499:498:501:506:512:506:502:507:507:507:509:513:513:517:534:690:915:871:466:538:545:531:531:533:538:543:548:560:567:","Acceleration = 78.45i -78.45j 8.80k  m/s^2 , Gyro = -0.04i 0.02j -0.01k  rad/s","23:45:42"],["64","36.06","100","490:493:496:497:497:499:499:499:498:499:500:501:502:505:504:504:505:513:520:514:511:511:513:518:518:519:519:525:537:688:920:906:483:542:553:535:536:540:543:546:555:560:569:578:588:600:614:625:633:639:638:630:602:560:526:504:489:482:480:478:483:483:486:489:494:495:497:499:500:501:505:504:506:506:506:507:505:505:504:505:506:507:508:509:514:522:518:511:512:512:513:517:519:518:522:541:696:922:884:475:540:546:532:532:538:542:544:552:555:566:572:582:595:609:622:632:636:634:624:596:553:519:496:478:474:474:471:471:473:476:476:476:483:486:488:489:490:493:493:494:494:495:497:498:499:497:500:498:499:504:511:512:505:507:506:507:512:512:513:516:526:658:907:907:480:533:550:531:531:534:540:546:552:560:567:577:589:601:614:627:638:643:645:636:601:554:516:487:474:468:465:463:466:468:469:470:476:476:481:484:","Acceleration = 78.45i -78.45j 8.81k  m/s^2 , Gyro = -0.06i 0.01j -0.03k  rad/s","23:46:05"],["69","36","96","512:514:525:656:888:894:485:526:547:532:528:533:540:542:548:554:566:572:582:591:604:610:620:622:619:607:576:538:509:488:476:471:473:474:470:475:477:483:485:488:493:494:495:495:500:501:500:502:504:499:504:513:512:506:505:506:508:510:510:512:516:522:569:788:952:656:476:557:535:533:538:537:542:550:555:567:577:582:596:609:619:627:633:633:625:600:561:526:500:485:475:473:474:475:474:478:480:484:489:489:495:498:499:502:504:504:504:502:504:511:513:505:504:506:507:506:512:511:513:520:558:766:950:667:469:558:538:531:533:540:544:549:556:562:571:581:595:605:616:626:627:628:618:593:553:518:494:482:474:471:472:474:475:477:480:483:487:490:494:496:498:498:499:500:501:499:500:500:502:502:511:512:504:505:506:506:507:508:509:511:516:586:813:938:609:482:552:526:524:529:531:534:542:548:556:566:576:585:594:605:","Acceleration = 78.45i -78.45j 8.84k  m/s^2 , Gyro = -0.04i 0.01j -0.01k  rad/s","23:46:30"],["75","35.88","73","480:473:475:476:475:482:477:477:481:485:494:492:495:495:502:501:505:502:500:508:504:506:509:505:504:509:517:519:517:512:512:512:513:513:512:518:525:546:725:943:828:465:554:550:535:541:542:546:562:560:567:577:581:597:604:625:637:644:651:642:627:602:561:523:500:483:478:480:483:480:483:485:488:493:490:499:499:501:502:502:509:507:508:508:502:507:509:509:512:513:513:507:514:517:525:528:521:518:516:520:522:520:521:528:529:585:812:956:670:487:567:542:535:540:543:548:561:566:569:576:585:593:609:622:631:637:642:640:621:586:545:518:495:484:480:477:482:482:485:487:487:489:489:499:495:499:498:500:504:504:506:501:499:501:501:500:505:507:506:504:499:512:518:514:506:506:509:508:512:511:517:518:531:677:914:897:470:529:542:525:525:530:532:535:543:548:560:569:580:588:605:614:627:632:634:621:594:552:514:486:","Acceleration = 78.45i -78.45j 8.83k  m/s^2 , Gyro = -0.04i 0.01j -0.01k  rad/s","23:46:54"],["80","35.81","85","500:502:505:504:500:505:506:506:506:507:509:519:519:514:512:513:513:514:518:517:518:532:585:807:964:667:478:557:534:533:535:537:541:548:554:561:567:580:588:597:609:624:626:632:628:616:585:543:509:489:483:475:475:477:476:478:481:482:485:489:494:495:497:499:501:500:500:500:501:499:502:504:504:502:504:504:514:514:511:510:506:508:514:507:512:514:524:580:798:942:672:475:552:532:526:531:532:534:541:546:555:568:574:581:595:604:617:625:625:621:609:578:538:505:487:475:472:470:468:473:477:477:480:480:485:488:488:492:492:494:495:495:495:494:496:494:494:497:495:494:498:504:508:506:502:504:502:504:502:507:505:513:523:650:903:920:485:520:543:523:524:526:537:536:545:555:561:571:577:592:604:612:628:637:628:628:606:561:525:498:477:468:465:469:468:469:476:474:476:483:485:490:494:496:495:495:498:497:498:499:","Acceleration = 78.45i -78.45j 8.85k  m/s^2 , Gyro = -0.05i 0.03j -0.01k  rad/s","23:47:17"],["84","35.88","0","598:567:533:509:487:480:483:476:478:485:486:486:493:495:497:500:500:499:500:504:502:500:505:501:499:506:504:504:505:513:514:506:505:499:504:512:507:507:512:514:547:749:919:712:453:546:529:524:524:528:534:538:546:555:561:569:577:589:595:609:614:607:605:588:556:520:498:478:469:464:469:469:470:469:474:478:480:485:487:487:489:488:492:489:493:488:489:492:486:499:507:505:497:494:495:498:500:505:509:508:516:572:801:932:569:487:553:532:525:532:536:542:549:560:564:574:584:591:603:617:624:626:624:616:586:546:516:495:480:471:469:470:471:471:473:476:483:485:488:493:494:495:498:498:497:499:497:497:498:496:500:502:509:512:505:502:502:501:506:506:509:508:518:537:727:926:760:456:549:536:529:529:533:540:545:550:560:567:574:588:600:607:618:617:619:614:600:561:528:504:485:474:471:474:473:476:478:480:483:487:","Acceleration = 78.45i -78.45j 8.88k  m/s^2 , Gyro = -0.04i 0.02j -0.01k  rad/s","23:47:40"],["86","35.56","90","530:530:532:540:545:552:559:567:577:590:603:609:624:627:633:634:614:577:538:505:488:475:472:469:469:471:475:473:478:483:483:488:489:490:495:497:497:496:496:497:495:493:495:507:516:502:500:501:501:501:502:511:513:516:542:738:941:723:457:554:535:526:526:533:542:548:557:562:572:582:591:607:619:632:642:640:634:614:569:526:501:481:468:469:465:468:470:470:474:477:480:483:486:490:494:499:495:500:500:498:502:497:501:505:502:512:507:502:506:505:506:508:506:512:516:518:601:831:927:559:485:552:542:533:529:531:541:546:553:565:571:580:594:604:622:632:637:633:620:600:559:521:498:478:471:468:468:470:472:471:476:482:481:487:488:489:492:495:495:496:497:497:497:495:495:506:506:508:501:502:501:501:495:513:507:510:511:528:690:914:843:452:531:541:526:528:532:541:541:549:554:565:572:580:596:608:619:627:632:627:","Acceleration = 78.45i -78.45j 8.82k  m/s^2 , Gyro = -0.04i 0.01j -0.01k  rad/s","23:48:03"],["88","35.56","85","610:586:543:508:487:476:469:466:464:469:469:476:476:481:485:485:487:489:487:489:489:489:492:493:490:493:489:489:502:499:495:497:495:497:499:498:502:504:513:573:797:921:603:474:548:524:520:525:526:534:543:548:555:565:571:581:590:603:615:619:620:616:594:555:522:494:478:471:465:465:471:468:477:478:475:483:485:492:486:488:488:492:492:494:493:493:493:493:488:494:501:505:497:498:497:498:504:499:501:506:512:525:679:901:848:457:532:543:531:526:534:542:545:553:560:565:581:591:598:608:624:629:631:633:621:593:552:518:498:485:478:476:475:480:483:483:487:488:496:494:495:500:501:500:502:502:498:499:504:505:512:514:507:506:508:508:511:509:511:519:521:577:798:940:593:478:560:542:536:540:544:550:554:560:572:581:593:605:612:626:637:645:636:625:606:562:526:499:483:473:471:470:473:473:475:477:484:486:493:493:","Acceleration = 78.45i -78.45j 8.78k  m/s^2 , Gyro = -0.04i 0.01j -0.01k  rad/s","23:48:26"],["37","35.56","90","565:571:584:595:608:615:625:626:619:602:567:520:488:470:460:456:456:459:459:460:466:470:469:474:484:486:488:490:487:494:498:493:490:497:505:501:499:501:501:500:502:501:513:513:523:590:820:936:579:490:553:530:532:534:537:540:548:556:562:572:584:591:604:621:628:632:630:622:596:557:522:499:487:480:475:475:476:480:480:486:488:492:494:497:498:502:501:502:505:501:500:507:514:509:505:504:505:507:507:509:512:520:541:708:913:819:458:546:545:531:533:534:540:543:553:564:568:572:585:604:613:621:628:629:625:607:571:533:506:489:481:474:476:476:477:483:484:485:488:494:495:496:497:498:499:499:498:501:498:504:506:511:506:504:505:506:507:506:509:514:514:522:643:869:900:498:518:546:522:525:531:533:537:543:552:556:567:577:588:601:608:617:618:619:604:580:540:512:486:481:475:472:473:473:474:478:483:485:488:494:","Acceleration = 78.45i -78.45j 8.82k  m/s^2 , Gyro = -0.04i 0.01j 0.00k  rad/s","23:48:49"],["41","35.56","98","500:498:497:498:494:496:497:507:508:502:500:501:501:502:507:510:508:521:590:805:904:588:492:553:529:526:526:531:541:546:550:557:566:578:586:594:605:616:622:620:614:586:546:512:486:473:465:462:461:462:466:475:475:464:459:450:453:464:472:477:484:489:495:501:505:506:518:525:523:531:535:544:552:554:557:567:584:633:871:1011:649:538:614:593:585:592:590:595:606:610:627:638:651:668:679:691:706:712:703:692:662:616:578:545:522:513:516:513:514:516:506:506:508:502:506:506:508:512:516:512:513:511:512:520:518:512:508:511:511:514:510:509:505:513:517:637:889:825:435:521:523:504:495:499:511:524:520:522:528:534:547:559:567:571:574:572:545:520:464:404:355:324:301:294:282:286:308:301:308:312:324:331:339:349:345:357:357:373:363:375:382:388:387:384:397:406:405:411:412:429:451:577:820:711:366:486:494:474:475:476:","Acceleration = 78.45i -78.45j 8.89k  m/s^2 , Gyro = -0.04i 0.02j -0.00k  rad/s","23:49:17"],["43","35.69","76","543:738:962:785:461:555:541:528:532:535:544:549:553:562:572:582:595:606:615:632:641:641:639:619:573:531:497:478:469:469:466:469:469:469:474:480:477:488:489:490:494:496:501:501:504:500:504:506:501:506:505:506:510:519:512:510:512:512:507:514:516:514:516:534:661:906:933:492:528:559:532:530:534:543:544:555:558:572:577:582:600:613:621:641:644:645:629:594:549:513:494:477:463:470:468:465:470:470:474:474:475:481:485:486:488:492:488:494:489:493:494:492:496:497:495:498:498:505:507:498:501:505:504:504:507:509:513:519:554:770:973:704:460:557:534:528:526:532:534:542:554:556:567:582:592:605:619:630:639:645:639:614:569:523:494:472:461:456:454:454:459:460:462:468:466:473:473:478:483:483:485:488:486:488:488:486:487:488:488:486:488:489:492:495:495:495:497:505:506:497:494:501:501:502:505:505:508:516:572:801:","Acceleration = 78.45i -78.45j 8.73k  m/s^2 , Gyro = -0.04i 0.01j -0.00k  rad/s","23:49:42"],["45","35.56","89","494:489:489:494:499:501:506:497:495:497:501:502:504:504:505:508:524:684:912:846:456:536:535:526:524:526:531:537:546:553:561:571:581:594:607:618:629:632:633:624:589:547:514:495:480:476:476:476:478:484:487:488:494:496:497:500:502:502:505:509:507:509:518:511:512:512:513:508:525:528:519:518:517:519:520:522:526:525:536:556:746:944:820:469:567:561:540:543:550:553:553:564:571:576:586:593:604:625:629:638:644:639:626:594:553:525:505:492:488:488:483:481:490:488:485:492:493:494:499:499:502:504:501:501:499:502:501:502:506:507:507:505:511:516:519:509:511:513:513:514:518:516:520:532:598:825:951:603:494:566:541:537:538:543:550:550:559:569:579:590:598:609:624:637:645:644:638:617:578:533:506:487:474:474:475:474:474:474:480:478:482:486:488:489:493:494:495:495:496:497:497:497:502:508:506:497:499:499:505:501:","Acceleration = 78.45i -78.45j 8.80k  m/s^2 , Gyro = -0.04i 0.02j -0.01k  rad/s","23:50:08"],["48","35.63","105","495:494:500:512:499:495:496:496:501:500:504:500:509:532:673:881:831:454:535:546:524:525:528:534:541:546:558:560:571:581:595:607:615:622:621:622:605:572:532:502:481:465:458:469:465:465:468:468:480:482:481:488:482:489:476:475:486:498:501:486:484:495:504:498:506:502:494:501:502:502:508:512:521:588:763:872:584:478:568:554:535:543:545:541:553:565:570:569:579:588:610:627:629:634:637:627:598:557:532:507:483:478:475:471:470:477:483:476:484:487:487:481:485:499:496:489:493:497:489:495:495:497:504:501:493:492:501:505:501:506:509:506:519:570:759:864:609:473:560:537:538:542:543:552:555:565:569:576:585:601:609:619:631:629:630:628:608:572:534:513:487:480:484:478:476:486:488:478:490:496:496:502:495:501:506:494:494:501:500:502:505:497:511:513:504:508:505:506:506:507:509:519:534:615:818:855:495:514:559:533:","Acceleration = 78.45i -78.45j 8.84k  m/s^2 , Gyro = -0.04i 0.01j -0.00k  rad/s","23:50:33"],["52","35.63","97","617:626:630:628:617:580:536:501:480:466:460:461:461:462:465:468:474:476:480:483:483:487:489:488:487:493:495:497:495:493:490:494:497:499:499:500:507:531:717:945:762:442:546:534:522:526:532:537:546:553:561:572:582:593:605:615:627:632:630:621:593:552:513:486:471:464:464:463:465:466:470:471:475:478:478:485:485:486:488:489:488:488:489:486:492:495:500:498:495:497:497:499:500:499:504:507:517:630:864:906:497:511:544:525:525:528:533:540:550:556:561:570:581:590:598:612:620:622:624:612:585:543:512:489:477:471:469:469:473:475:476:480:486:486:488:488:493:492:493:493:492:494:494:493:493:495:506:504:496:498:498:498:502:504:507:507:517:581:793:907:593:486:554:531:525:530:537:540:546:555:560:568:579:589:598:608:615:617:619:609:589:553:520:496:483:475:474:474:477:480:484:486:488:492:494:492:495:494:495:495:","Acceleration = 78.45i -78.45j 8.88k  m/s^2 , Gyro = -0.03i 0.07j -0.05k  rad/s","23:50:56"],["50","35.69","103","484:490:487:493:489:492:494:494:497:494:494:500:499:499:500:499:505:508:506:506:513:512:512:516:518:517:516:519:520:526:528:529:522:521:523:526:524:522:526:541:656:941:989:528:533:565:532:540:544:544:553:562:566:576:583:598:604:622:637:648:657:666:658:627:585:536:495:475:466:459:462:461:464:464:466:468:468:473:475:475:486:483:486:489:489:486:494:488:489:487:490:489:493:496:492:493:500:500:505:499:506:504:507:508:512:508:508:513:511:513:522:517:524:524:531:531:526:520:520:525:523:532:533:535:632:900:1011:613:512:571:547:546:547:553:555:565:571:577:586:596:614:619:637:652:660:664:660:643:609:557:523:493:483:471:473:468:476:476:475:478:477:478:486:487:493:498:498:496:501:499:495:505:506:499:506:504:505:501:510:513:514:509:512:516:519:520:520:524:526:525:532:531:532:533:542:544:542:535:538:537:","Acceleration = 78.45i -78.45j 8.75k  m/s^2 , Gyro = -0.08i 0.06j -0.02k  rad/s","23:51:19"],["55","35.75","87","632:627:614:584:542:507:485:471:464:462:463:464:464:466:469:474:478:480:487:488:489:492:495:496:496:495:497:497:500:500:500:504:505:506:507:507:508:507:512:512:522:522:518:517:517:518:518:520:525:526:529:580:801:987:738:480:561:540:533:536:540:543:552:555:561:572:579:586:600:608:617:621:621:613:598:567:531:504:486:477:474:474:471:476:477:481:483:486:490:495:497:499:499:500:499:501:502:502:506:505:506:506:508:508:511:512:513:514:518:518:518:521:519:520:521:524:534:531:528:525:526:526:528:529:533:533:538:646:904:989:565:524:561:542:540:541:544:547:554:556:564:579:582:594:602:609:615:618:619:609:591:555:520:498:484:474:475:470:471:480:478:483:486:493:499:495:504:501:504:504:502:501:506:502:501:505:505:502:508:508:506:510:512:513:512:518:516:517:521:517:526:536:522:525:525:522:524:522:525:529:","Acceleration = 78.45i -78.45j 8.82k  m/s^2 , Gyro = -0.04i 0.01j -0.00k  rad/s","23:51:44"],["58","35.75","94","541:748:957:777:462:549:534:523:526:528:534:542:547:556:564:573:582:591:601:612:614:614:609:592:556:522:496:480:473:466:466:469:471:476:478:483:486:488:493:495:495:498:500:500:500:500:502:501:499:500:502:514:513:507:507:507:507:508:509:512:513:520:586:822:957:639:483:552:526:525:528:533:540:545:553:560:566:574:583:593:603:608:610:608:606:583:547:516:492:476:468:466:466:466:468:471:473:476:480:480:483:483:487:486:487:488:488:487:484:485:485:483:487:489:496:495:488:489:492:493:495:498:500:501:507:580:818:943:598:475:541:516:514:518:523:530:533:540:549:558:566:576:585:598:603:606:607:600:577:537:506:480:465:460:457:457:456:457:460:466:469:475:477:477:480:481:483:483:485:482:484:486:486:490:499:493:492:494:497:494:498:500:502:507:512:625:885:913:475:518:546:526:525:526:533:540:545:558:567:577:","Acceleration = 78.45i -78.45j 8.90k  m/s^2 , Gyro = -0.03i 0.01j -0.00k  rad/s","23:52:07"],["48","35.69","91","495:495:487:489:493:496:497:497:499:504:516:600:834:907:501:507:547:525:528:533:540:546:553:560:568:580:595:603:617:632:639:642:642:627:598:552:513:488:475:469:468:468:468:468:475:481:486:488:493:495:500:500:504:504:504:506:506:505:507:504:505:507:516:513:507:508:508:509:512:512:514:517:529:614:841:925:528:517:558:540:538:542:548:554:562:569:576:588:595:606:614:626:632:634:636:628:601:560:525:501:486:481:480:480:481:483:485:487:492:497:498:502:502:504:505:508:509:509:509:509:512:513:511:511:513:522:525:518:518:517:518:520:521:524:525:530:552:734:932:817:470:554:548:532:533:542:543:552:558:566:574:583:596:606:615:627:634:633:628:616:583:545:516:497:487:483:480:480:481:481:483:487:488:494:495:494:497:495:497:495:494:493:489:488:489:489:489:489:499:499:488:492:489:493:494:496:496:497:502:534:","Acceleration = 78.45i -78.45j 8.84k  m/s^2 , Gyro = -0.05i 0.02j -0.01k  rad/s","23:52:31"],["37","35.88","92","450:524:528:516:516:518:530:532:535:546:559:567:579:589:601:614:618:624:619:604:573:531:502:478:464:459:459:459:461:464:464:465:475:480:481:484:487:488:490:492:489:489:494:494:504:501:494:496:499:502:502:506:507:512:517:596:840:944:540:499:554:531:529:533:538:543:550:558:567:576:589:600:615:627:634:634:633:621:589:545:511:485:473:469:464:466:468:469:474:478:480:484:487:494:497:498:499:501:502:501:500:499:502:504:511:507:502:502:502:505:506:506:510:513:522:619:858:941:537:507:558:533:532:538:543:546:554:561:569:578:588:598:608:620:629:633:632:621:594:553:518:493:481:475:475:473:475:477:480:483:486:489:493:497:501:499:501:504:504:505:502:502:505:513:516:509:507:507:508:509:511:512:511:516:526:681:914:865:465:533:544:529:530:533:536:543:553:558:567:577:585:595:607:617:626:626:621:607:579:536:","Acceleration = 78.45i -78.45j 8.84k  m/s^2 , Gyro = -0.04i 0.02j -0.01k  rad/s","23:52:55"],["40","36","92","553:559:571:584:593:607:617:627:628:622:594:548:509:485:466:456:454:459:456:458:458:461:463:469:472:473:476:481:478:482:480:485:486:485:487:487:486:493:501:498:492:496:496:498:498:501:504:508:518:601:847:945:536:501:553:532:529:533:538:544:552:556:567:579:590:603:614:632:642:646:646:638:606:559:520:489:475:469:469:468:468:470:473:475:478:483:485:490:495:498:499:504:502:502:505:506:506:508:509:507:511:520:520:516:514:516:518:519:519:520:523:528:550:728:952:860:473:556:553:537:540:543:548:553:560:566:574:586:595:606:618:627:637:642:642:628:593:553:517:495:482:477:477:478:480:482:484:487:490:495:496:497:501:504:505:505:506:508:508:508:507:509:509:508:509:513:521:521:514:514:516:517:519:520:520:522:532:617:844:946:596:502:559:535:532:537:540:546:552:555:562:571:581:591:603:615:625:634:636:629:","Acceleration = 78.45i -78.45j 8.88k  m/s^2 , Gyro = -0.04i 0.01j -0.03k  rad/s","23:53:18"],["41","35.88","102","516:509:511:513:514:514:514:519:520:532:644:886:938:528:523:554:532:532:537:540:543:550:555:564:571:579:591:603:616:627:636:641:637:614:574:533:504:483:474:471:468:468:471:474:476:476:478:483:486:487:487:494:495:494:495:495:495:496:497:495:497:499:496:498:500:499:499:501:504:513:512:507:506:506:508:506:507:512:511:518:573:802:960:653:474:549:525:522:525:530:534:541:546:557:562:572:585:594:607:620:632:642:638:624:586:541:502:480:463:454:454:454:457:459:459:458:464:466:466:474:476:478:480:481:483:484:485:486:488:488:488:490:496:505:499:494:495:497:498:501:504:505:509:516:614:861:932:517:507:553:531:531:531:536:544:550:559:566:576:586:598:614:628:642:648:653:645:617:569:528:497:476:469:466:466:466:469:473:472:477:480:483:485:488:493:496:499:499:500:502:504:506:504:506:506:506:509:507:511:521:","Acceleration = 78.45i -78.45j 8.82k  m/s^2 , Gyro = -0.04i 0.01j -0.01k  rad/s","23:53:41"],["49","35.94","92","533:537:544:552:558:565:576:585:596:607:617:626:633:634:624:595:553:516:489:476:470:468:468:470:470:474:478:482:482:485:488:487:493:493:489:494:494:494:496:495:496:494:495:496:501:507:507:502:501:502:504:504:505:507:509:516:584:824:952:624:480:549:528:522:525:529:534:543:546:555:564:574:585:594:606:618:629:636:634:618:581:538:505:483:468:465:462:462:461:468:468:470:474:476:480:486:487:488:486:488:489:489:488:489:493:489:501:502:494:493:494:496:499:498:499:504:509:523:703:940:813:446:538:534:521:523:528:531:537:545:553:559:572:582:595:607:624:632:636:638:625:592:546:509:485:469:462:461:463:464:464:466:470:474:476:482:486:486:487:488:493:494:494:494:496:497:497:496:498:501:510:505:502:504:505:506:507:509:508:513:522:636:877:937:526:513:550:529:529:531:534:540:544:552:560:566:578:590:601:612:","Acceleration = 78.45i -78.45j 8.82k  m/s^2 , Gyro = -0.04i 0.02j -0.01k  rad/s","23:54:05"],["55","36","87","835:456:545:540:524:528:529:535:542:546:554:562:573:582:594:607:616:625:629:628:615:583:542:511:488:478:471:470:468:469:473:476:480:481:486:487:488:487:493:489:489:492:489:489:493:490:490:494:502:505:498:498:500:501:505:501:504:507:509:534:727:948:781:450:546:536:522:524:530:535:543:549:557:569:579:589:601:613:625:634:641:641:626:590:546:512:488:475:468:468:468:470:471:476:478:482:487:488:489:494:497:500:502:501:502:505:504:504:504:516:513:508:508:512:512:513:513:518:518:524:576:804:981:656:488:572:547:541:545:550:558:564:570:581:591:601:615:625:639:650:657:662:657:636:593:552:520:502:494:489:489:492:494:495:499:502:504:506:509:516:516:519:520:521:522:522:520:521:521:524:526:529:530:528:531:531:528:528:536:541:540:536:536:538:537:537:540:542:542:552:672:919:972:547:542:572:549:548:550:555:","Acceleration = 78.45i -78.45j 8.86k  m/s^2 , Gyro = -0.04i 0.01j -0.01k  rad/s","23:54:28"],["74","36.13","87","605:617:626:634:637:632:612:570:531:502:483:475:470:469:468:471:474:477:478:483:487:489:493:494:495:497:497:497:496:498:498:500:500:499:499:506:513:507:505:507:507:508:511:511:512:514:525:641:869:921:519:518:549:528:526:532:536:541:545:555:562:572:581:589:600:613:622:631:633:634:619:582:542:509:488:476:474:471:472:476:478:478:483:484:485:488:493:493:495:496:499:499:496:497:498:499:501:499:498:504:505:513:513:506:506:505:506:507:508:511:509:519:569:780:933:690:470:553:532:526:528:532:535:543:546:555:560:571:578:590:605:615:626:632:631:622:593:550:516:488:474:465:463:462:465:465:469:470:473:477:483:484:486:488:486:487:487:489:490:490:490:493:492:489:494:496:504:501:497:497:499:499:502:504:506:508:516:621:867:920:499:512:547:529:526:529:530:540:546:556:567:571:579:590:602:617:629:636:644:638:","Acceleration = 78.45i -78.45j 8.88k  m/s^2 , Gyro = -0.05i 0.03j -0.01k  rad/s","23:54:52"],["56","36","90","582:593:604:616:628:633:638:634:616:576:538:506:487:476:472:470:470:474:474:477:480:480:481:484:486:486:489:489:489:490:493:493:490:492:494:493:493:494:497:498:499:501:528:571:571:577:525:502:499:497:499:499:498:501:504:506:514:615:867:941:528:498:541:520:514:520:524:531:534:542:549:556:566:578:588:601:614:626:630:633:622:595:547:509:483:464:458:453:457:457:461:460:461:463:468:470:473:477:480:480:482:485:484:485:485:486:488:489:493:493:493:501:505:498:496:497:502:504:505:508:509:514:525:667:917:894:471:531:547:529:533:537:542:545:554:561:567:579:590:604:616:629:641:650:653:650:630:588:543:508:486:474:469:468:470:470:473:474:478:482:484:489:493:494:499:501:501:502:502:502:504:505:506:506:506:508:510:509:509:513:516:523:521:516:517:517:518:520:521:525:525:532:592:812:964:691:486:564:543:534:","Acceleration = 78.45i -78.45j 8.88k  m/s^2 , Gyro = -0.04i 0.01j -0.01k  rad/s","23:55:19"],["61","36.06","87","468:473:473:478:480:483:487:487:489:492:493:496:496:495:499:504:510:506:500:504:508:506:507:509:511:514:520:580:812:960:612:486:562:538:533:536:540:545:553:560:569:578:586:596:608:624:636:645:650:648:639:609:564:525:499:483:476:474:474:474:477:480:483:486:490:493:496:499:499:502:505:506:506:506:504:505:507:507:507:507:508:513:520:523:517:514:513:516:518:518:522:522:525:544:708:932:882:470:547:552:536:536:541:544:550:556:561:572:579:586:596:608:618:628:636:641:639:621:588:548:516:495:483:477:477:477:478:481:483:486:489:494:495:497:499:500:499:501:500:501:502:502:502:504:502:500:501:506:517:513:507:507:507:509:510:511:513:512:519:571:790:940:680:471:555:532:525:526:531:536:542:549:556:562:572:580:590:601:615:626:632:634:628:601:560:522:496:480:473:464:466:468:469:474:475:475:480:480:486:488:","Acceleration = 78.45i -78.45j 8.98k  m/s^2 , Gyro = -0.04i 0.02j -0.01k  rad/s","23:55:43"],["65","36.13","93","582:594:606:617:629:639:646:644:632:601:557:520:496:483:473:470:471:474:477:478:481:485:487:490:493:494:495:497:499:498:500:499:497:501:502:499:502:506:514:513:505:508:511:512:513:511:513:518:526:595:825:937:581:498:562:542:541:543:545:549:556:568:576:584:590:603:616:629:643:646:655:652:637:598:552:516:489:477:472:468:468:470:474:474:477:478:482:486:489:488:495:497:495:495:495:497:496:498:496:499:498:500:505:509:508:501:504:502:504:506:508:508:512:521:598:828:932:577:496:558:534:533:533:536:544:549:556:562:571:580:592:605:616:629:638:640:641:627:593:546:514:490:476:470:468:470:471:474:476:478:481:484:487:489:493:494:496:496:497:497:499:497:497:497:499:499:501:504:504:504:507:509:518:518:512:512:512:513:516:516:521:520:529:593:802:939:656:486:560:537:534:536:541:545:549:553:562:569:579:588:","Acceleration = 78.45i -78.45j 8.89k  m/s^2 , Gyro = -0.05i 0.06j -0.02k  rad/s","23:56:08"],["68","36.06","91","625:625:621:605:565:521:500:475:469:464:459:463:463:465:471:476:478:484:486:485:492:492:488:489:489:490:490:490:490:500:502:496:496:496:499:500:499:502:507:513:523:668:909:841:453:543:545:532:532:535:540:545:552:561:570:578:588:603:614:622:631:638:634:625:597:552:516:490:475:468:466:466:466:469:475:477:480:484:489:489:494:494:495:495:497:497:497:497:496:495:499:508:508:501:502:502:506:506:508:507:511:516:545:742:934:737:468:555:541:531:533:535:540:545:553:560:568:577:586:596:606:616:625:627:627:615:585:545:514:493:480:475:474:474:477:480:483:485:488:493:495:498:500:499:501:502:502:501:504:501:502:499:502:505:517:513:508:507:508:510:512:512:514:517:523:595:811:920:608:494:559:535:532:534:541:545:552:556:564:568:579:589:598:606:618:626:627:626:609:578:541:512:492:481:478:478:478:481:483:485:","Acceleration = 78.45i -78.45j 8.97k  m/s^2 , Gyro = -0.04i 0.01j -0.00k  rad/s","23:56:32"],["72","35.94","92","476:476:480:483:487:487:494:496:497:499:502:502:502:504:502:502:505:506:513:512:506:506:506:511:512:512:513:518:526:645:882:905:506:525:555:534:533:537:541:546:553:560:568:577:588:595:606:618:628:634:636:628:606:566:529:502:486:478:475:477:477:481:483:486:486:492:494:496:499:500:500:500:500:499:501:499:498:502:504:512:509:505:505:506:507:508:509:512:512:523:593:808:914:603:488:555:534:530:532:535:541:545:553:561:569:578:588:598:609:624:630:632:629:609:570:531:502:483:473:471:471:471:474:475:477:478:482:486:488:490:490:494:493:493:494:493:494:494:495:494:495:495:506:508:498:497:498:499:502:504:504:507:509:545:746:918:735:451:542:531:521:521:524:532:534:543:548:557:567:576:589:598:614:619:625:626:609:577:533:499:478:464:460:459:459:464:461:464:468:474:478:476:476:480:480:485:485:486:486:486:","Acceleration = 78.45i -78.45j 8.90k  m/s^2 , Gyro = -0.06i 0.04j -0.01k  rad/s","23:56:55"],["76","35.88","86","489:486:494:496:500:502:500:498:501:505:500:506:504:505:505:510:511:517:514:511:512:513:513:513:516:520:521:525:613:855:936:565:504:561:538:533:535:542:544:552:559:567:573:581:598:607:618:631:639:641:641:620:579:541:508:493:482:473:474:470:474:480:482:481:486:487:489:489:495:497:495:499:498:500:502:504:500:499:499:501:499:499:500:502:508:512:505:502:500:507:509:506:507:508:519:557:751:937:727:460:550:534:525:529:536:537:542:547:552:561:574:583:598:615:624:637:642:645:629:588:537:506:484:465:461:460:459:460:460:464:466:473:475:469:481:483:480:484:485:486:484:489:492:489:490:488:490:498:502:502:492:495:502:496:500:506:506:507:523:591:833:929:554:496:549:528:532:533:542:541:546:553:567:578:586:595:613:628:642:648:656:643:620:572:522:489:474:459:454:454:454:459:462:465:468:470:469:476:487:486:","Acceleration = 78.45i -78.45j 8.94k  m/s^2 , Gyro = -0.05i 0.05j -0.01k  rad/s","23:57:18"],["30","36","92","596:607:616:619:621:609:578:542:511:488:471:470:464:469:466:466:468:473:475:480:483:484:487:485:485:488:489:489:490:490:494:494:494:496:507:504:498:501:502:501:504:507:507:507:513:574:801:945:597:475:560:538:532:535:538:544:553:559:568:573:588:598:609:622:632:636:636:629:601:560:522:495:478:468:465:466:469:470:472:474:477:481:486:487:493:494:496:498:498:496:499:502:501:499:499:501:505:512:508:505:506:505:506:508:511:512:513:520:608:844:931:541:504:556:534:532:537:540:544:550:559:566:574:585:595:606:615:622:628:628:622:596:553:520:497:483:475:473:473:475:475:476:478:485:487:493:495:496:498:499:500:501:502:505:505:504:505:507:507:508:508:507:509:514:521:518:514:514:516:514:518:520:521:524:535:654:879:916:518:522:556:536:534:536:542:545:552:558:566:573:585:594:604:613:621:626:626:618:595:559:","Acceleration = 78.45i -78.45j 8.87k  m/s^2 , Gyro = -0.04i 0.03j -0.01k  rad/s","23:57:42"],["41","36.06","86","502:502:505:506:511:520:631:872:919:502:507:552:529:528:533:536:542:549:555:562:574:585:596:607:625:633:640:642:634:608:562:521:493:475:466:463:464:465:470:471:474:475:478:483:487:488:493:494:496:497:499:499:500:499:499:501:501:500:501:504:514:514:507:507:508:509:512:511:513:514:519:542:712:920:859:464:538:546:531:531:535:541:545:552:556:562:571:579:591:604:616:625:631:632:622:596:555:519:495:480:473:470:470:470:474:475:478:481:483:486:490:493:496:496:498:497:498:498:499:497:498:500:499:498:502:511:508:502:504:504:506:505:509:509:510:516:565:777:928:700:461:552:533:524:528:532:536:542:549:555:567:573:582:595:606:618:627:632:631:615:583:538:507:484:470:466:464:468:468:468:469:475:474:480:485:486:488:489:489:489:497:487:494:497:492:495:506:504:497:502:501:497:505:504:507:507:509:538:724:922:","Acceleration = 78.45i -78.45j 8.86k  m/s^2 , Gyro = -0.04i 0.01j -0.01k  rad/s","23:58:05"],["49","35.81","78","547:546:531:534:535:543:547:554:561:568:577:588:596:608:617:626:629:627:613:580:542:513:490:478:474:473:471:475:476:478:480:484:488:489:490:495:496:495:498:499:498:499:499:500:499:498:501:502:504:512:514:505:505:505:507:509:509:510:512:517:548:733:916:758:459:555:542:530:531:534:537:544:553:560:567:577:585:597:608:618:626:629:628:614:580:535:505:484:471:468:466:465:468:471:474:475:480:481:485:488:492:493:488:496:496:494:493:495:495:496:497:496:505:506:497:499:502:502:504:506:509:510:518:579:801:932:585:483:559:536:533:534:540:545:553:558:569:578:585:596:608:625:633:642:643:637:608:566:522:495:478:469:468:468:468:469:474:476:478:483:485:488:493:495:498:498:499:502:500:501:502:505:502:505:505:505:507:514:518:507:507:511:512:514:514:514:517:521:552:744:934:773:465:560:545:536:536:542:545:550:","Acceleration = 78.45i -78.45j 8.78k  m/s^2 , Gyro = -0.03i 0.03j -0.01k  rad/s","23:58:28"],["55","35.88","86","484:484:487:489:489:489:490:494:493:493:495:501:505:498:498:499:499:502:505:505:507:513:523:684:929:861:461:545:543:529:530:533:537:543:549:557:566:578:588:598:609:624:634:640:637:625:588:545:509:488:474:470:469:468:470:471:473:478:484:486:489:494:495:494:496:497:497:499:499:502:500:499:502:507:513:508:506:508:507:509:512:514:513:516:528:645:879:918:512:525:555:534:533:536:540:545:553:560:568:576:584:593:605:617:627:632:637:628:598:557:522:496:481:474:470:471:475:478:481:484:485:487:489:494:495:498:500:500:500:499:501:501:501:501:502:500:505:513:516:508:507:507:509:509:512:513:516:519:532:653:871:900:509:525:554:533:532:536:541:545:550:558:566:570:581:591:605:618:627:631:634:626:598:557:522:498:481:474:470:469:470:471:477:478:482:486:487:488:489:493:488:492:493:493:493:493:490:495:495:493:","Acceleration = 78.45i -78.45j 8.87k  m/s^2 , Gyro = -0.04i 0.02j -0.01k  rad/s","23:58:51"],["61","36.13","75","769:945:616:469:555:534:530:532:540:542:544:553:561:577:581:594:609:620:630:637:641:634:615:577:528:496:480:465:462:465:462:466:469:471:476:477:480:484:487:489:489:493:496:495:493:493:496:496:497:499:507:505:504:502:502:505:507:505:506:511:519:559:771:926:686:465:554:542:528:531:537:542:546:557:562:568:579:589:598:608:624:627:633:633:610:580:541:511:489:480:478:474:471:475:480:484:487:489:492:493:495:496:500:502:500:502:502:502:498:498:505:511:513:508:506:504:505:508:510:508:513:518:529:669:892:866:469:530:546:534:531:534:541:544:549:560:566:573:588:592:605:615:627:634:630:619:595:557:517:494:483:475:471:475:476:475:480:482:482:490:490:489:498:495:499:502:499:495:497:501:500:498:501:513:508:496:502:502:502:504:505:506:508:512:542:738:926:746:450:542:536:524:528:534:535:542:548:554:568:574:","Acceleration = 78.45i -78.45j 8.87k  m/s^2 , Gyro = -0.05i 0.02j -0.01k  rad/s","23:59:17"],["57","35.88","81","508:506:506:508:520:517:512:513:512:514:514:518:519:521:525:565:776:958:726:466:558:541:529:534:537:542:545:553:562:570:577:581:594:604:609:620:622:624:617:601:566:528:504:485:475:473:468:469:473:476:476:480:485:485:489:493:493:494:495:496:497:495:494:494:497:496:496:497:506:508:504:504:502:506:506:508:511:513:519:529:665:917:902:478:529:548:533:534:541:542:548:553:560:569:577:585:597:608:618:628:632:636:632:609:576:537:504:483:470:468:466:459:464:469:466:474:476:483:483:487:487:489:490:492:494:493:492:494:496:497:494:493:496:505:509:506:501:506:501:505:504:507:512:513:518:594:831:940:592:487:552:531:525:532:534:540:546:554:561:568:579:586:594:606:615:621:626:625:615:590:552:517:494:482:471:473:473:475:478:481:480:486:488:490:498:498:497:499:499:499:501:498:499:501:505:502:505:507:505:502:","Acceleration = 78.45i -78.45j 9.08k  m/s^2 , Gyro = -0.07i 0.12j -0.00k  rad/s","23:59:39"],["66","36.19","91","573:586:598:609:620:628:633:626:605:566:526:499:477:466:466:465:465:468:469:474:474:478:482:484:489:488:494:493:494:492:494:490:492:495:504:507:499:499:500:500:502:502:505:507:514:523:662:913:852:450:535:545:528:530:534:542:546:554:560:568:579:589:601:613:627:634:642:640:629:600:556:519:495:480:474:471:471:474:473:476:478:482:486:489:494:497:496:499:500:501:501:501:501:501:501:502:504:512:510:506:507:506:507:508:512:513:514:522:596:822:929:600:489:556:534:530:533:535:540:546:554:560:568:578:590:596:607:618:626:630:627:615:579:538:508:488:480:473:473:474:474:477:480:482:486:489:493:494:496:495:497:497:498:499:499:499:500:499:499:501:513:513:507:507:508:507:509:511:513:513:518:541:713:909:820:459:545:544:531:532:534:540:544:549:559:566:574:580:594:604:615:625:631:629:622:595:552:517:495:478:","Acceleration = 78.45i -78.45j 9.11k  m/s^2 , Gyro = -0.04i 0.01j -0.01k  rad/s","00:00:08"],["70","35.88","88","519:589:824:948:601:483:556:534:531:531:535:541:547:554:560:569:579:589:603:617:632:643:648:644:628:589:543:508:487:475:469:468:469:470:470:473:474:477:481:485:487:487:492:494:497:496:499:499:499:499:499:499:501:501:504:505:506:507:508:509:512:510:512:513:512:513:512:521:525:522:520:520:522:521:524:523:525:526:536:641:877:954:572:510:558:535:532:536:541:546:552:554:561:570:578:586:598:615:627:637:642:641:629:598:556:521:499:486:478:477:476:476:478:480:483:485:488:490:494:494:497:498:499:499:499:500:499:500:502:502:504:506:506:506:507:508:508:508:513:514:513:516:516:516:516:517:520:521:519:518:523:532:529:524:524:525:523:526:526:528:529:534:595:825:978:687:489:564:541:532:534:536:542:546:552:560:565:576:584:595:605:619:629:636:637:633:607:566:522:496:477:465:461:461:461:465:464:466:469:470:","Acceleration = 78.45i -78.45j 9.24k  m/s^2 , Gyro = -0.04i 0.01j -0.00k  rad/s","00:00:31"],[null,null,null,"## New Updated Data ##",null,null],["136","37.06","105815:105738:105698:105589:105535:105486:105418:105423:105428:105481:105641:105872:106187:106464:106546:106508:106444:106384:106294:106215:106189:106145:106084:105988:105913:105861:105823:105737:105647:105625:105584:105577:105542:105541:105524:105484:105406:105317:105283:105233:105241:105238:105210:105298:105423:105657:105980:106288:106434:106387:106333:106262:106201:106151:106069:105988:105948:105903:105829:105774:105727:105599:105576:105528:105450:105424:105399:105399:105408:105384:105329:105290:105222:105127:105123:105110:105104:105078:105132:105263:105438:105758:106126:106373:106362:106328:106282:106194:106150:106086:106016:105953:105901:105856:105744:105731:105645:105605:105545:105460","525:532:538:546:556:566:574:582:584:585:577:550:518:488:466:452:448:445:445:448:449:450:458:457:461:465:466:465:469:470:470:471:474:474:476:478:481:480:483:486:486:488:487:488:497:501:496:499:501:501:505:507:507:511:523:622:804:831:509:488:549:528:528:532:535:541:549:554:560:568:576:584:595:605:614:619:626:625:613:586:553:524:505:493:485:483:484:484:487:489:494:496:499:500:506:504:505:507:506:507:506:506:509:513:512:513:511:517:514:514:516:520:525:525:523:524:526:530:533:530:535:543:601:786:889:645:476:576:558:553:556:564:567:572:577:586:595:603:607:619:629:644:651:654:655:643:626:590:555:528:513:504:498:498:497:501:502:507:508:510:513:514:520:519:519:522:523:519:523:523:526:524:522:522:528:531:526:530:533:532:534:535:541:547:578:753:903:737:457:572:567:561:562:566:569:574:583:589:595:603","Acceleration = 78.45i -78.45j 8.60k  m/s^2 , Gyro = -0.05i 0.01j -0.01k  rad/s","20:34:53"],["132","37","106011:105919:105842:105773:105653:105622:105586:105602:105579:105544:105506:105401:105245:105143:105078:105027:104997:105000:105106:105294:105551:105949:106341:106427:106381:106244:106189:106118:105978:105920:105835:105747:105668:105581:105446:105375:105294:105214:105160:105104:105066:105029:105046:105020:104901:104791:104664:104606:104564:104494:104488:104538:104683:104940:105259:105691:106079:106183:106117:105999:105911:105835:105692:105628:105561:105427:105354:105257:105177:105063:104962:104887:104789:104687:104650:104614:104602:104554:104515:104453:104335:104218:104121:104079:104060:104044:104069:104134:104299:104622:105036:105440:105769:105812:105739:105644:105562:105446:105373:105270","437:439:432:437:437:433:439:445:437:441:433:449:489:717:874:553:413:513:506:502:514:511:521:528:532:535:543:552:568:576:586:606:626:627:627:605:569:521:488:475:465:461:459:462:466:465:472:472:487:493:476:463:363:307:261:213:197:207:225:235:253:246:238:218:199:189:186:183:183:189:197:288:533:608:248:214:289:259:272:276:292:313:328:354:366:386:421:452:483:509:543:576:598:610:618:603:604:594:581:582:582:594:600:607:616:619:626:629:633:637:640:638:638:632:632:629:629:636:628:626:618:619:617:615:614:614:616:613:618:613:615:628:686:913:1024:726:569:641:616:614:610:616:617:622:625:632:636:639:646:656:665:674:680:687:682:666:637:596:561:537:520:512:512:514:518:519:526:529:531:535:532:531:530:528:530:526:526:526:525:525:525:521:521:525:535:524:522:529:530:523:524:525:526:530:562:733:898:776:452:552","Acceleration = 78.45i -78.45j 8.66k  m/s^2 , Gyro = -0.04i 0.01j -0.01k  rad/s","20:35:13"],["124","37.19","106966:106943:106910:106884:106882:106846:106881:106880:106881:106859:106782:106740:106736:106729:106736:106704:106772:106884:107072:107345:107621:107689:107709:107640:107618:107588:107500:107490:107442:107431:107327:107323:107294:107257:107172:107165:107142:107119:107111:107124:107132:107139:107070:107047:107004:106968:106963:106911:106922:106942:107047:107162:107389:107662:107846:107831:107775:107730:107701:107676:107584:107571:107526:107501:107457:107426:107338:107325:107276:107286:107307:107285:107317:107324:107276:107237:107155:107119:107091:107052:107061:107092:107187:107336:107571:107761:107843:107809:107773:107694:107662:107633:107608:107529:107514:107463:107434:107409:107377:107333","626:600:566:540:518:506:501:498:499:501:506:507:508:512:511:516:516:513:518:514:513:513:511:511:509:507:508:506:507:502:502:507:507:504:507:501:502:502:504:506:512:546:720:865:652:424:531:516:513:513:513:518:522:526:532:540:549:554:565:574:578:586:582:580:568:542:501:469:447:436:428:426:418:426:427:428:432:433:435:439:440:442:445:445:444:445:446:445:447:446:448:447:447:447:448:447:458:462:459:459:460:463:468:470:469:476:497:622:802:785:416:483:512:493:499:501:508:513:519:528:536:545:554:566:577:588:596:598:598:592:577:547:514:490:476:468:465:468:468:470:473:480:483:484:487:489:496:493:496:498:498:497:498:499:501:505:505:504:507:512:516:514:516:518:519:522:522:526:526:540:621:800:855:566:494:567:546:547:552:556:561:569:576:582:591:601:608:618:627:637:642:641:637:622:594:561:532:517:509:501","Acceleration = 78.45i -78.45j 8.61k  m/s^2 , Gyro = -0.04i -0.00j -0.01k  rad/s","20:35:32"],["122","37.06","106689:106616:106560:106515:106517:106479:106510:106501:106461:106413:106300:106243:106215:106181:106195:106212:106278:106441:106684:107023:107354:107511:107521:107442:107337:107290:107238:107187:107149:107061:107008:106947:106850:106805:106741:106661:106614:106516:106473:106409:106380:106318:106325:106329:106340:106263:106255:106142:106069:106054:106062:106052:106020:106114:106266:106509:106838:107181:107438:107484:107382:107334:107289:107188:107146:107065:107029:106954:106909:106836:106786:106690:106606:106555:106492:106430:106366:106317:106208:106184:106167:106170:106132:106114:106110:106056:105996:105935:105920:105858:105888:105897:105986:106183:106413:106778:107131:107372:107424:107376","504:532:569:550:550:552:554:560:567:571:576:581:593:600:608:617:625:629:631:628:616:588:554:525:502:487:478:473:473:472:471:471:473:478:480:480:483:486:487:495:488:492:488:494:494:489:492:494:496:501:499:499:501:501:505:504:511:506:505:508:516:518:516:516:520:519:521:520:526:531:559:718:882:774:449:554:552:540:544:546:552:554:560:568:576:582:594:604:614:627:634:640:643:637:618:580:543:514:497:483:475:474:471:478:477:480:485:485:488:492:492:495:498:499:502:501:506:505:507:511:507:512:511:509:512:518:516:513:516:513:514:513:518:514:522:552:715:883:726:435:548:542:534:540:540:547:550:559:567:574:581:590:603:618:626:636:641:641:631:605:566:520:495:478:465:463:463:461:463:465:469:471:470:480:481:483:487:486:488:488:486:487:486:488:492:487:488:487:495:499:493:493:494:497:498:496:500:502:513:576","Acceleration = 78.45i -78.45j 8.53k  m/s^2 , Gyro = -0.04i 0.02j -0.00k  rad/s","20:35:51"],["115","36.81","105948:105751:105679:105636:105638:105568:105572:105536:105429:105315:105254:105237:105167:105157:105182:105247:105441:105644:106019:106397:106451:106304:106221:106125:106073:105967:105896:105827:105726:105663:105586:105523:105402:105354:105277:105174:105119:105086:105065:105068:105042:105053:105047:104915:104808:104741:104690:104637:104638:104696:104775:105042:105344:105738:106143:106246:106209:106127:106060:105993:105884:105834:105710:105662:105609:105487:105436:105317:105254:105201:105081:105064:105018:105045:105082:105033:105047:104956:104845:104715:104659:104625:104631:104618:104754:104976:105290:105647:106011:106126:106078:105943:105885:105810:105737:105650:105574:105512:105445:105340","614:617:617:602:581:544:509:485:475:462:461:460:459:460:460:465:468:471:471:474:475:478:476:476:476:478:476:475:475:477:478:478:480:478:481:487:486:483:488:489:493:494:493:494:502:526:684:841:730:413:526:526:516:519:523:529:535:542:547:554:561:574:582:593:604:609:616:609:602:581:545:514:494:477:469:469:468:469:469:471:478:481:484:486:487:492:494:494:493:497:496:495:497:497:499:499:502:501:502:505:506:517:517:513:518:518:521:523:524:526:532:555:700:854:805:456:546:562:548:547:552:556:562:570:578:583:589:600:607:619:632:640:643:642:638:621:590:559:535:519:509:505:501:504:506:506:508:512:513:513:518:519:520:520:523:523:524:523:523:525:526:525:525:524:524:532:535:526:530:530:531:532:535:534:535:545:601:773:855:642:470:570:552:546:552:555:558:564:568:577:582:591:598:612:617:631:633:638:633:622","Acceleration = 78.45i -78.45j 8.60k  m/s^2 , Gyro = -0.04i 0.01j -0.00k  rad/s","20:36:10"],["110","37","104780:104785:104669:104555:104452:104377:104296:104249:104257:104319:104468:104729:105094:105421:105699:105738:105658:105508:105436:105364:105272:105197:105109:105039:104947:104866:104736:104654:104583:104526:104455:104380:104371:104373:104346:104285:104193:104030:103948:103896:103881:103854:103872:103974:104175:104485:104880:105282:105472:105479:105408:105327:105216:105098:105038:104961:104889:104791:104682:104605:104514:104430:104336:104231:104193:104136:104117:104100:104087:104054:103978:103886:103738:103693:103669:103658:103652:103730:103867:104113:104485:104932:105319:105403:105333:105260:105186:105134:105008:104944:104873:104797:104744:104644:104537:104464:104358:104309:104250:104166","556:561:571:578:586:598:608:618:619:625:624:610:582:552:520:499:487:484:480:481:481:484:485:487:489:494:495:495:497:499:501:501:499:504:505:501:502:505:506:505:506:508:509:510:507:513:522:513:516:521:521:521:524:525:526:535:603:787:878:618:470:567:546:540:545:548:553:559:560:572:579:585:595:604:615:628:633:636:634:625:595:559:524:504:487:480:480:476:473:484:485:485:484:487:492:493:497:497:496:496:496:498:498:499:498:498:501:498:506:508:499:504:504:506:509:512:512:514:533:648:841:833:464:513:553:533:535:540:543:548:556:562:570:581:593:601:615:628:636:641:643:638:619:580:541:513:496:487:485:485:484:487:487:492:495:500:504:511:509:512:514:518:516:514:516:518:518:521:523:525:528:525:526:530:540:542:536:537:540:541:546:547:545:549:567:693:873:862:490:545:580:560:560:562:570:573:582:585:591:600","Acceleration = 78.45i -78.45j 8.61k  m/s^2 , Gyro = -0.04i 0.01j -0.01k  rad/s","20:36:29"],["173","32.88","35992:35998:35963:35983:35990:35988:35972:35980:35970:36003:35968:35984:35969:35996:36001:35978:35983:36001:35960:35976:35993:35968:35966:35981:35988:35977:35988:35967:35988:35983:35979:35972:35950:35983:35978:35965:35964:35959:35968:35982:35998:35944:35966:35974:35981:35988:35967:35980:35981:35960:35983:35979:35981:36003:35960:35980:36000:35999:35978:35972:35982:36000:35981:35973:35979:35981:36000:35972:35984:35973:35979:35990:35965:35977:35996:35971:35986:35986:35976:35958:35977:35989:35969:35976:36000:35965:35976:35999:35985:35974:35989:35968:35978:35984:35992:35965:35977:35990:35984:35968",null,"Acceleration = 78.45i -78.45j 9.60k  m/s^2 , Gyro = -0.04i 0.02j -0.01k  rad/s","12:38:28"],["173","33.13","35954:35972:35979:35978:35990:35967:35970:35981:35992:35977:35975:35976:35978:35986:35967:35973:35972:35977:35975:35991:35986:35969:35953:35975:35994:35990:35965:35955:35976:35993:35988:35974:35949:35977:35996:35989:35970:35971:35973:36006:35988:35980:35966:35969:35956:35974:35993:35964:35983:35982:35970:35979:35971:35975:35993:35972:35992:35969:35985:35978:35961:35978:35961:35987:35996:35957:35987:35991:35969:35993:35953:35980:35997:35970:35978:35983:35989:35971:35974:35967:35963:35974:35980:35988:35976:35978:35989:35977:35991:35953:35972:35982:35973:35991:35951:35972:35999:35959:35983:36002",null,"Acceleration = 78.45i -78.45j 9.76k  m/s^2 , Gyro = -0.04i 0.02j -0.01k  rad/s","12:38:43"],["173","33.25","35995:35980:35973:35971:35965:35969:35985:35978:35973:35960:35976:35979:35990:35962:35972:35973:35985:35992:35959:35967:35985:35946:35970:35982:35961:35965:35978:35976:35978:35950:35964:35975:35969:35959:35959:35955:35975:35968:35968:35993:35968:35957:35969:35976:35984:35945:35975:35991:35961:35969:35983:35954:35969:35975:35975:35978:35968:35975:35987:35963:35974:35978:35976:35969:35978:35951:35956:35963:35972:35978:35981:35953:35955:35968:35993:35952:35967:35985:35958:35967:35983:35950:35973:35989:35968:35979:35998:35953:35975:35986:35957:35969:35981:35955:35976:35977:35986:35974:35969:35977",null,"Acceleration = 78.45i -78.45j 9.76k  m/s^2 , Gyro = -0.04i 0.02j -0.01k  rad/s","12:38:58"],["173","33.31","35969:35988:35989:35972:35968:35986:35981:35957:35973:35994:35958:35963:35970:35992:35942:35971:35989:35962:35975:35989:35948:35974:35981:35957:35972:35993:35962:35975:35981:35994:35953:35972:35985:35956:35972:35988:35955:35977:35979:35985:35987:35951:35969:35997:35949:35972:35999:35965:35968:35987:35963:35979:35982:35955:35975:35993:35983:35967:35976:35992:35974:35983:35977:35970:35978:35976:35995:35956:35981:35971:35979:35992:35969:35974:35971:35982:35999:36004:35942:35982:35996:35963:35979:35992:35953:35954:35966:35978:35994:35990:35971:35979:35993:35955:35988:35986:35977:35972:35998:35965",null,"Acceleration = 78.45i -78.45j 9.80k  m/s^2 , Gyro = -0.04i 0.02j -0.01k  rad/s","12:39:13"],["173","33.25","35968:35988:36001:35965:35992:36004:35969:35978:35979:35995:35966:35980:35989:35999:35984:35962:35986:36003:36000:35960:35969:35986:35993:35974:35984:35996:35973:35983:35999:35986:35992:35976:35983:35982:35990:36000:35971:35980:35979:35996:35989:35970:35977:35986:35971:35996:35962:35980:35978:35968:35978:35997:35975:36000:35971:35984:36006:35965:35966:35989:35981:35991:35961:35981:36001:35991:35959:35980:35996:35968:35978:35987:35963:35984:35987:35983:35987:36008:35961:35984:35961:35984:35988:35981:35983:35958:35981:35994:35974:35986:35971:35982:35999:35958:35986:35995:35968:35975:35993:35951",null,"Acceleration = 78.45i -78.45j 9.74k  m/s^2 , Gyro = -0.04i 0.02j -0.01k  rad/s","12:39:29"],["173","33.31","35970:35990:35959:35982:35994:35947:35971:35988:35980:35985:35964:35984:35995:35957:35976:35989:35974:35981:35991:35972:36000:35963:35980:35994:35978:35973:35963:35984:35992:35978:35969:35974:35987:35976:35982:36004:35960:35977:35987:35989:36002:35963:35987:35992:35975:35982:35981:36005:35988:35968:35985:35966:35977:35988:35994:35996:35999:35975:35979:35997:35962:35980:35983:35966:35981:35988:35979:35995:35965:35986:35981:35992:35963:35979:35981:36001:35967:35986:35998:35976:35983:36014:35964:35985:35991:36009:35964:35978:35972:35987:35979:35980:35975:35977:35981:35982:35964:35984:35976:35983",null,"Acceleration = 78.45i -78.45j 9.70k  m/s^2 , Gyro = -0.04i 0.02j -0.01k  rad/s","12:39:44"],["172","33.38","35983:36006:35968:35977:35998:35968:35991:36004:35983:35963:35978:35984:35993:35981:35966:35981:35998:35974:35982:35993:35972:35981:35972:35988:36001:35961:35986:36000:35962:35979:35998:35970:35960:35979:36004:35989:35957:35980:36000:35963:35973:35968:35977:35984:35996:35965:35983:36007:35953:35975:35982:35988:35983:35972:35980:35988:35969:36003:35965:35985:35984:35995:35999:35963:35976:35974:35997:35967:35974:35980:35977:35986:36001:35967:35979:36000:35960:35975:35999:35975:35993:35975:35984:35997:35971:35975:35978:35987:35999:35970:35983:36003:35972:35995:35956:35965:35979:36008:35953:35975",null,"Acceleration = 78.45i -78.45j 9.72k  m/s^2 , Gyro = -0.04i 0.02j -0.01k  rad/s","12:39:59"],["173","33.31","35980:35989:36011:35967:35976:35995:35994:35984:35993:35990:35993:35989:36002:35972:35980:36000:36002:35968:35986:35979:35998:36008:35964:35987:35991:36017:35961:35986:35992:36011:35982:35987:35998:36019:35980:35954:35988:36003:35986:35993:35981:35992:35983:35973:35981:35987:35984:35990:35985:35969:35994:35987:35998:36008:35970:35990:36001:35975:35987:35992:35983:35981:35988:36002:35975:35992:36003:35958:35989:35998:35991:35967:35984:36002:35975:35986:36000:35969:35989:35999:35978:35967:35979:35994:36001:35967:35993:36006:35977:35986:36011:36003:35988:35987:36007:35967:35984:36011:35984:35983",null,"Acceleration = 78.45i -78.45j 9.70k  m/s^2 , Gyro = -0.04i 0.02j -0.01k  rad/s","12:40:14"],["173","33.31","35997:35993:36011:35993:35987:35989:36005:35965:35993:35998:35977:35990:36011:35965:35983:35999:35959:35992:36015:35967:35986:36004:35970:35991:36013:35960:35990:35983:36005:36002:35977:35989:36000:35966:35986:35998:35966:35986:36005:35982:35968:35985:36012:35969:35986:36001:35992:35998:35993:35989:36007:35983:35990:36002:36004:35989:35988:36002:35961:35997:35993:35978:35986:35991:35990:35990:35992:35993:35988:35980:35986:35997:35995:35983:35980:35992:36004:35985:35994:35981:35989:36009:35998:35969:35975:35993:36005:35979:35972:35965:35986:35998:35963:35993:36007:35980:35989:36007:35974:35987",null,"Acceleration = 78.45i -78.45j 9.67k  m/s^2 , Gyro = -0.04i 0.02j -0.01k  rad/s","12:40:30"],["173","33.25","35994:35991:35994:36002:35981:35987:36000:35972:35991:36002:35994:35984:35995:36019:35972:35992:36002:35975:35982:35998:35985:36002:35972:35975:35994:35983:35992:35977:35987:36000:35986:35999:35985:35985:35975:35996:36005:35979:35997:36018:35990:35995:36015:36012:35986:35994:35987:36000:36002:35994:35994:35977:35996:35989:35992:36010:35985:35989:35999:35997:36001:35969:36001:35999:35983:35979:35991:36007:35991:36005:35974:35992:36015:35995:35990:36008:35977:35996:36010:35981:35991:36013:35993:35990:35991:35973:35993:36015:35977:36001:36015:35979:35996:36012:35986:36011:35987:35966:35992:36018",null,"Acceleration = 78.45i -78.45j 9.65k  m/s^2 , Gyro = -0.04i 0.02j -0.01k  rad/s","12:40:44"],["173","33.44","36013:35962:35996:36011:35973:35998:35978:36000:36008:35987:35993:35995:36002:35987:35994:35978:35999:36004:35984:36000:35991:35993:36015:35976:35998:36005:35992:35996:36018:35978:35981:35990:36025:35970:35997:36008:36013:35982:35992:36007:35982:35996:35990:35982:35994:36002:35996:36004:35976:35999:36017:35970:36000:36012:35984:35994:36002:35995:36011:35973:35986:36001:36003:36018:35966:35993:36015:35969:35996:36002:35996:35979:35999:36003:35983:35988:36020:35980:35997:36014:35969:35999:36023:35976:35999:36000:36000:35984:35995:36003:35980:35970:35958:35994:35996:36010:35979:35979:35988:35989",null,"Acceleration = 78.45i -78.45j 9.63k  m/s^2 , Gyro = -0.04i 0.02j -0.01k  rad/s","12:40:59"],["173","33.44","36012:35993:36002:35995:35990:36014:35986:36001:35999:35992:35984:35989:35995:35994:35992:35995:36009:36001:35982:35993:35996:35993:35993:35998:35995:36007:36004:35992:36007:35973:35976:35997:36020:35982:35995:36004:35985:35996:35997:35999:36009:35985:35998:36000:36006:35966:35998:35997:36005:35991:35991:36000:35996:35988:36006:35971:35983:35978:35992:36015:35988:36003:36012:35979:35998:35992:35985:35981:35988:36010:36013:35992:36003:35987:36001:35973:35996:36012:35978:35992:36014:35974:35997:36006:35978:35997:36004:36010:36002:35983:35989:36000:35986:35998:35985:35992:36007:36002:35960:36000",null,"Acceleration = 78.45i -78.45j 9.62k  m/s^2 , Gyro = -0.04i 0.02j -0.01k  rad/s","12:41:14"],["173","32.75","27117:27106:27119:27072:27086:27086:27086:27037:27058:27068:27026:27045:27043:26997:26987:26987:26975:26936:26920:26871:26847:26843:26847:26832:26858:26804:26725:26598:26470:26392:26301:25872:25322:24513:23190:21621:20326:19395:18877:18519:18397:18309:18252:18191:18155:18131:18055:18040:18087:18095:18120:18123:18055:18060:18042:18041:18023:18009:17990:17944:17924:17930:17959:17993:18012:17977:17973:17984:17982:17971:17991:18014:17976:17976:17982:17993:17991:17978:17977:18000:18009:18011:17973:18013:18020:18029:18028:17987:18001:18032:18013:18014:18022:17978:17969:17980:17970:17987:17995:18028",null,"Acceleration = 78.45i -78.45j 9.66k  m/s^2 , Gyro = -0.04i 0.02j -0.01k  rad/s","10:35:18"],["172","32.94","29563:29587:29583:29599:29561:29566:29582:29587:29586:29564:29568:29579:29587:29590:29564:29572:29593:29571:29578:29592:29576:29574:29590:29557:29578:29585:29602:29600:29590:29574:29586:29597:29566:29579:29581:29565:29582:29571:29578:29593:29577:29584:29575:29572:29602:29567:29589:29604:29562:29599:29560:29587:29594:29566:29561:29568:29584:29596:29561:29564:29584:29595:29560:29583:29590:29573:29552:29568:29590:29571:29583:29564:29583:29565:29574:29596:29556:29579:29591:29564:29577:29553:29571:29591:29560:29567:29585:29587:29566:29578:29588:29577:29592:29554:29577:29571:29593:29590:29563:29574",null,"Acceleration = 78.45i -78.45j 9.77k  m/s^2 , Gyro = -0.04i 0.02j -0.01k  rad/s","10:35:32"],["173","33.31","29406:29417:29440:29403:29425:29438:29413:29416:29431:29398:29424:29434:29414:29420:29436:29391:29418:29410:29415:29422:29417:29433:29429:29416:29426:29432:29422:29428:29413:29429:29427:29419:29436:29414:29431:29433:29438:29434:29413:29429:29440:29449:29429:29410:29407:29429:29445:29421:29438:29434:29413:29428:29446:29407:29429:29454:29416:29425:29452:29407:29429:29429:29433:29436:29444:29401:29436:29441:29462:29423:29439:29434:29455:29422:29433:29453:29410:29426:29443:29443:29408:29405:29414:29413:29400:29406:29391:29403:29421:29378:29396:29417:29370:29396:29408:29355:29364:29394:29378:29381",null,"Acceleration = 78.45i -78.45j 9.83k  m/s^2 , Gyro = -0.04i 0.02j -0.01k  rad/s","10:35:48"],["173","33.44","29237:29228:29250:29218:29233:29262:29225:29242:29257:29213:29242:29249:29246:29270:29223:29245:29250:29259:29273:29258:29266:29233:29174:29200:29310:29386:29427:29444:29386:29413:29429:29434:29402:29427:29423:29415:29417:29412:29413:29435:29404:29423:29443:29379:29375:29381:29362:29397:29403:29384:29359:29379:29428:29436:29460:29444:29427:29485:29490:29484:29506:29472:29496:29518:29474:29487:29497:29494:29490:29488:29429:29447:29492:29480:29469:29523:29513:29491:29430:29457:29469:29427:29460:29472:29431:29441:29461:29452:29435:29451:29456:29433:29441:29455:29422:29453:29460:29423:29443:29463",null,"Acceleration = 78.45i -78.45j 9.78k  m/s^2 , Gyro = -0.04i 0.02j -0.01k  rad/s","10:36:02"],["172","33.44",null,null,"Acceleration = 78.45i -78.45j 9.77k  m/s^2 , Gyro = -0.04i 0.02j -0.01k  rad/s","10:36:17"]],"csvError":null,"dependabotInfo":{"showConfigurationBanner":false,"configFilePath":null,"networkDependabotPath":"/sakethwithanh/mHealth-frontend/network/updates","dismissConfigurationNoticePath":"/settings/dismiss-notice/dependabot_configuration_notice","configurationNoticeDismissed":null,"repoAlertsPath":"/sakethwithanh/mHealth-frontend/security/dependabot","repoSecurityAndAnalysisPath":"/sakethwithanh/mHealth-frontend/settings/security_analysis","repoOwnerIsOrg":false,"currentUserCanAdminRepo":false},"displayName":"IP_ Sujay Deb - AHLSAM018434 .csv","displayUrl":"https://github.com/sakethwithanh/mHealth-frontend/blob/main/IP_%20Sujay%20Deb%20-%20AHLSAM018434%20.csv?raw=true","headerInfo":{"blobSize":"107 KB","deleteInfo":{"deleteTooltip":"You must be signed in to make or propose changes"},"editInfo":{"editTooltip":"You must be signed in to make or propose changes"},"ghDesktopPath":"https://desktop.github.com","gitLfsPath":null,"onBranch":true,"shortPath":"7bff456","siteNavLoginPath":"/login?return_to=https%3A%2F%2Fgithub.com%2Fsakethwithanh%2FmHealth-frontend%2Fblob%2Fmain%2FIP_%2520Sujay%2520Deb%2520-%2520AHLSAM018434%2520.csv","isCSV":true,"isRichtext":false,"toc":null,"lineInfo":{"truncatedLoc":"123","truncatedSloc":"123"},"mode":"file"},"image":false,"isCodeownersFile":null,"isPlain":false,"isValidLegacyIssueTemplate":false,"issueTemplateHelpUrl":"https://docs.github.com/articles/about-issue-and-pull-request-templates","issueTemplate":null,"discussionTemplate":null,"language":"CSV","languageID":51,"large":false,"loggedIn":false,"newDiscussionPath":"/sakethwithanh/mHealth-frontend/discussions/new","newIssuePath":"/sakethwithanh/mHealth-frontend/issues/new","planSupportInfo":{"repoIsFork":null,"repoOwnedByCurrentUser":null,"requestFullPath":"/sakethwithanh/mHealth-frontend/blob/main/IP_%20Sujay%20Deb%20-%20AHLSAM018434%20.csv","showFreeOrgGatedFeatureMessage":null,"showPlanSupportBanner":null,"upgradeDataAttributes":null,"upgradePath":null},"publishBannersInfo":{"dismissActionNoticePath":"/settings/dismiss-notice/publish_action_from_dockerfile","dismissStackNoticePath":"/settings/dismiss-notice/publish_stack_from_file","releasePath":"/sakethwithanh/mHealth-frontend/releases/new?marketplace=true","showPublishActionBanner":false,"showPublishStackBanner":false},"rawBlobUrl":"https://github.com/sakethwithanh/mHealth-frontend/raw/main/IP_%20Sujay%20Deb%20-%20AHLSAM018434%20.csv","renderImageOrRaw":false,"richText":null,"renderedFileInfo":null,"shortPath":null,"tabSize":8,"topBannersInfo":{"overridingGlobalFundingFile":false,"globalPreferredFundingPath":null,"repoOwner":"sakethwithanh","repoName":"mHealth-frontend","showInvalidCitationWarning":false,"citationHelpUrl":"https://docs.github.com/en/github/creating-cloning-and-archiving-repositories/creating-a-repository-on-github/about-citation-files","showDependabotConfigurationBanner":false,"actionsOnboardingTip":null},"truncated":false,"viewable":true,"workflowRedirectUrl":null,"symbols":{"timed_out":false,"not_analyzed":true,"symbols":[]}},"copilotInfo":null,"copilotAccessAllowed":false,"csrf_tokens":{"/sakethwithanh/mHealth-frontend/branches":{"post":"GRMzF_z_AS7tbbL8S1EGx99MqyFmaTc03biwyWAe4S_b5ecPqWn3EQxKwC8mA6MaRHk5lcJU9I0x3dXhHh9TpQ"},"/repos/preferences":{"post":"EmBZc1q0x3ustLf4eZB5DHdwMQyIB_y4-o_IUjhJhTC4uF43cNYXXc7pFuPfw3XWCyBozFOEu9q3SxgtQFd0WA"}}},"title":"mHealth-frontend/IP_ Sujay Deb - AHLSAM018434 .csv at main · sakethwithanh/mHealth-frontend"}